date (Europe/Berlin),ecg
2018-02-16 10:45:04.940000+01:00,-0.005132226833146934
2018-02-16 10:45:04.942000+01:00,0.02231445931997376
2018-02-16 10:45:04.944000+01:00,0.04540782323758315
2018-02-16 10:45:04.946000+01:00,0.06070921810003574
2018-02-16 10:45:04.948000+01:00,0.06639891392985617
2018-02-16 10:45:04.950000+01:00,0.06261045147928206
2018-02-16 10:45:04.952000+01:00,0.051324805683892714
2018-02-16 10:45:04.954000+01:00,0.03585906997325561
2018-02-16 10:45:04.956000+01:00,0.020079190430157202
2018-02-16 10:45:04.958000+01:00,0.007527719571529862
2018-02-16 10:45:04.960000+01:00,0.0006712136130173224
2018-02-16 10:45:04.962000+01:00,0.00043562997936023667
2018-02-16 10:45:04.964000+01:00,0.006122328082367271
2018-02-16 10:45:04.966000+01:00,0.01570210053812861
2018-02-16 10:45:04.968000+01:00,0.026394395749130436
2018-02-16 10:45:04.970000+01:00,0.03537578767882563
2018-02-16 10:45:04.972000+01:00,0.04044032166713205
2018-02-16 10:45:04.974000+01:00,0.04045795861841938
2018-02-16 10:45:04.976000+01:00,0.03553765462420753
2018-02-16 10:45:04.978000+01:00,0.02688132733751705
2018-02-16 10:45:04.980000+01:00,0.016392618808726812
2018-02-16 10:45:04.982000+01:00,0.0061601589393606845
2018-02-16 10:45:04.984000+01:00,-0.002044032907688925
2018-02-16 10:45:04.986000+01:00,-0.007127409892282831
2018-02-16 10:45:04.988000+01:00,-0.008825303136761465
2018-02-16 10:45:04.990000+01:00,-0.007622918601861987
2018-02-16 10:45:04.992000+01:00,-0.004500343595468047
2018-02-16 10:45:04.994000+01:00,-0.0005924389089406193
2018-02-16 10:45:04.996000+01:00,0.0031312348092966532
2018-02-16 10:45:04.998000+01:00,0.006078735764388206
2018-02-16 10:45:05+01:00,0.008093522217199443
2018-02-16 10:45:05.002000+01:00,0.009361922791302378
2018-02-16 10:45:05.004000+01:00,0.010220063770156208
2018-02-16 10:45:05.006000+01:00,0.010936997900588741
2018-02-16 10:45:05.008000+01:00,0.011552227561781656
2018-02-16 10:45:05.010000+01:00,0.011822675518237786
2018-02-16 10:45:05.012000+01:00,0.011294681506135483
2018-02-16 10:45:05.014000+01:00,0.00947366929163556
2018-02-16 10:45:05.016000+01:00,0.006031222549989646
2018-02-16 10:45:05.018000+01:00,0.000976486890220787
2018-02-16 10:45:05.020000+01:00,-0.00527023826957449
2018-02-16 10:45:05.022000+01:00,-0.011932847870552538
2018-02-16 10:45:05.024000+01:00,-0.018053618586480562
2018-02-16 10:45:05.026000+01:00,-0.02273760111001275
2018-02-16 10:45:05.028000+01:00,-0.02539479524171886
2018-02-16 10:45:05.030000+01:00,-0.025906151382890933
2018-02-16 10:45:05.032000+01:00,-0.024660867772122622
2018-02-16 10:45:05.034000+01:00,-0.022450493041866148
2018-02-16 10:45:05.036000+01:00,-0.020248511306696554
2018-02-16 10:45:05.038000+01:00,-0.018939225289265258
2018-02-16 10:45:05.040000+01:00,-0.01907599206415452
2018-02-16 10:45:05.042000+01:00,-0.020740955408362016
2018-02-16 10:45:05.044000+01:00,-0.0235483884493012
2018-02-16 10:45:05.046000+01:00,-0.026790383888089162
2018-02-16 10:45:05.048000+01:00,-0.02967989068831531
2018-02-16 10:45:05.050000+01:00,-0.03161533995462596
2018-02-16 10:45:05.052000+01:00,-0.03238298862049558
2018-02-16 10:45:05.054000+01:00,-0.032230647444991635
2018-02-16 10:45:05.056000+01:00,-0.03178496407535955
2018-02-16 10:45:05.058000+01:00,-0.0318327433844755
2018-02-16 10:45:05.060000+01:00,-0.03303049215563669
2018-02-16 10:45:05.062000+01:00,-0.035632026211042465
2018-02-16 10:45:05.064000+01:00,-0.03932314848160639
2018-02-16 10:45:05.066000+01:00,-0.04322436347570088
2018-02-16 10:45:05.068000+01:00,-0.04607469672581725
2018-02-16 10:45:05.070000+01:00,-0.04655547522608911
2018-02-16 10:45:05.072000+01:00,-0.04366828093786377
2018-02-16 10:45:05.074000+01:00,-0.037059805380044296
2018-02-16 10:45:05.076000+01:00,-0.02719529608606057
2018-02-16 10:45:05.078000+01:00,-0.015320296036511078
2018-02-16 10:45:05.080000+01:00,-0.0032075303922763526
2018-02-16 10:45:05.082000+01:00,0.0072536574370574
2018-02-16 10:45:05.084000+01:00,0.014521235045204483
2018-02-16 10:45:05.086000+01:00,0.017794634033637454
2018-02-16 10:45:05.088000+01:00,0.017230799408496398
2018-02-16 10:45:05.090000+01:00,0.013919254243602052
2018-02-16 10:45:05.092000+01:00,0.009617322998696198
2018-02-16 10:45:05.094000+01:00,0.006311703066414872
2018-02-16 10:45:05.096000+01:00,0.005720449908710202
2018-02-16 10:45:05.098000+01:00,0.00886648453456179
2018-02-16 10:45:05.100000+01:00,0.015834803176218503
2018-02-16 10:45:05.102000+01:00,0.025775603584394242
2018-02-16 10:45:05.104000+01:00,0.03714829844631032
2018-02-16 10:45:05.106000+01:00,0.048135634683507185
2018-02-16 10:45:05.108000+01:00,0.05711134581210096
2018-02-16 10:45:05.110000+01:00,0.06303185159326494
2018-02-16 10:45:05.112000+01:00,0.06564612971059879
2018-02-16 10:45:05.114000+01:00,0.06547125418119105
2018-02-16 10:45:05.116000+01:00,0.06354893008421636
2018-02-16 10:45:05.118000+01:00,0.06106119146429275
2018-02-16 10:45:05.120000+01:00,0.05892318308674079
2018-02-16 10:45:05.122000+01:00,0.05747614369789334
2018-02-16 10:45:05.124000+01:00,0.05637284996985956
2018-02-16 10:45:05.126000+01:00,0.0546898180398703
2018-02-16 10:45:05.128000+01:00,0.051232392509636585
2018-02-16 10:45:05.130000+01:00,0.044940445560696936
2018-02-16 10:45:05.132000+01:00,0.03527100279438836
2018-02-16 10:45:05.134000+01:00,0.022439188384325535
2018-02-16 10:45:05.136000+01:00,0.007439296710930338
2018-02-16 10:45:05.138000+01:00,-0.008167963568088554
2018-02-16 10:45:05.140000+01:00,-0.022646575700419422
2018-02-16 10:45:05.142000+01:00,-0.03454494935466935
2018-02-16 10:45:05.144000+01:00,-0.043091669857047724
2018-02-16 10:45:05.146000+01:00,-0.04841029061227148
2018-02-16 10:45:05.148000+01:00,-0.05148635657642316
2018-02-16 10:45:05.150000+01:00,-0.053890361040750324
2018-02-16 10:45:05.152000+01:00,-0.05733091540722748
2018-02-16 10:45:05.154000+01:00,-0.06316248775258855
2018-02-16 10:45:05.156000+01:00,-0.07198683769712796
2018-02-16 10:45:05.158000+01:00,-0.08346206906029044
2018-02-16 10:45:05.160000+01:00,-0.09637497198536243
2018-02-16 10:45:05.162000+01:00,-0.10895766645023394
2018-02-16 10:45:05.164000+01:00,-0.11936001396489138
2018-02-16 10:45:05.166000+01:00,-0.1261450264673111
2018-02-16 10:45:05.168000+01:00,-0.12866848115569002
2018-02-16 10:45:05.170000+01:00,-0.12723790980164498
2018-02-16 10:45:05.172000+01:00,-0.12301015270495767
2018-02-16 10:45:05.174000+01:00,-0.1176619773236804
2018-02-16 10:45:05.176000+01:00,-0.11293272459241056
2018-02-16 10:45:05.178000+01:00,-0.11017264819069061
2018-02-16 10:45:05.180000+01:00,-0.11002548217505623
2018-02-16 10:45:05.182000+01:00,-0.11233062969488324
2018-02-16 10:45:05.184000+01:00,-0.11626245344318385
2018-02-16 10:45:05.186000+01:00,-0.120652202702674
2018-02-16 10:45:05.188000+01:00,-0.12438410988142909
2018-02-16 10:45:05.190000+01:00,-0.12673768800863047
2018-02-16 10:45:05.192000+01:00,-0.12756925732649538
2018-02-16 10:45:05.194000+01:00,-0.12728064594681987
2018-02-16 10:45:05.196000+01:00,-0.1265945736103084
2018-02-16 10:45:05.198000+01:00,-0.1262216306714405
2018-02-16 10:45:05.200000+01:00,-0.12654166871195913
2018-02-16 10:45:05.202000+01:00,-0.1274197376961832
2018-02-16 10:45:05.204000+01:00,-0.12823297460120178
2018-02-16 10:45:05.206000+01:00,-0.12811285734295205
2018-02-16 10:45:05.208000+01:00,-0.12632950514746705
2018-02-16 10:45:05.210000+01:00,-0.12268676557327304
2018-02-16 10:45:05.212000+01:00,-0.11777928555095146
2018-02-16 10:45:05.214000+01:00,-0.11299444840589697
2018-02-16 10:45:05.216000+01:00,-0.11021652251786901
2018-02-16 10:45:05.218000+01:00,-0.11128694732748907
2018-02-16 10:45:05.220000+01:00,-0.11736399094802837
2018-02-16 10:45:05.222000+01:00,-0.1283775506371146
2018-02-16 10:45:05.224000+01:00,-0.1427702142412513
2018-02-16 10:45:05.226000+01:00,-0.15764951522863363
2018-02-16 10:45:05.228000+01:00,-0.169362974894446
2018-02-16 10:45:05.230000+01:00,-0.17437725778939592
2018-02-16 10:45:05.232000+01:00,-0.1702337776969694
2018-02-16 10:45:05.234000+01:00,-0.1563007449758618
2018-02-16 10:45:05.236000+01:00,-0.13406765960209882
2018-02-16 10:45:05.238000+01:00,-0.10683314263195125
2018-02-16 10:45:05.240000+01:00,-0.07879815583862308
2018-02-16 10:45:05.242000+01:00,-0.05375299695898698
2018-02-16 10:45:05.244000+01:00,-0.03368875236476857
2018-02-16 10:45:05.246000+01:00,-0.017728214743614364
2018-02-16 10:45:05.248000+01:00,-0.0017318033012113283
2018-02-16 10:45:05.250000+01:00,0.021208309120937293
2018-02-16 10:45:05.252000+01:00,0.059388402724392185
2018-02-16 10:45:05.254000+01:00,0.12046761571553607
2018-02-16 10:45:05.256000+01:00,0.20923364867164024
2018-02-16 10:45:05.258000+01:00,0.3256985830974452
2018-02-16 10:45:05.260000+01:00,0.46403590783677084
2018-02-16 10:45:05.262000+01:00,0.6127105149873481
2018-02-16 10:45:05.264000+01:00,0.7558944106464807
2018-02-16 10:45:05.266000+01:00,0.8759615420107486
2018-02-16 10:45:05.268000+01:00,0.9565880466778505
2018-02-16 10:45:05.270000+01:00,0.9858170325988864
2018-02-16 10:45:05.272000+01:00,0.9584248271918421
2018-02-16 10:45:05.274000+01:00,0.8770588551448114
2018-02-16 10:45:05.276000+01:00,0.751877963777084
2018-02-16 10:45:05.278000+01:00,0.59875403566955
2018-02-16 10:45:05.280000+01:00,0.43641147903436744
2018-02-16 10:45:05.282000+01:00,0.2831127815498586
2018-02-16 10:45:05.284000+01:00,0.15358864413961287
2018-02-16 10:45:05.286000+01:00,0.056839776932205203
2018-02-16 10:45:05.288000+01:00,-0.004776573482230187
2018-02-16 10:45:05.290000+01:00,-0.035065089309449834
2018-02-16 10:45:05.292000+01:00,-0.04232255136282272
2018-02-16 10:45:05.294000+01:00,-0.03694122124218496
2018-02-16 10:45:05.296000+01:00,-0.02888058329675966
2018-02-16 10:45:05.298000+01:00,-0.02558791757543306
2018-02-16 10:45:05.300000+01:00,-0.030795805333014636
2018-02-16 10:45:05.302000+01:00,-0.04437916215932636
2018-02-16 10:45:05.304000+01:00,-0.06318171954595322
2018-02-16 10:45:05.306000+01:00,-0.08249175970836403
2018-02-16 10:45:05.308000+01:00,-0.09771475940543604
2018-02-16 10:45:05.310000+01:00,-0.10578380225726416
2018-02-16 10:45:05.312000+01:00,-0.10596067277965007
2018-02-16 10:45:05.314000+01:00,-0.09987432502814679
2018-02-16 10:45:05.316000+01:00,-0.09086244679007274
2018-02-16 10:45:05.318000+01:00,-0.08286621540508676
2018-02-16 10:45:05.320000+01:00,-0.07923090079050825
2018-02-16 10:45:05.322000+01:00,-0.0817633391183147
2018-02-16 10:45:05.324000+01:00,-0.09029868897039009
2018-02-16 10:45:05.326000+01:00,-0.10286662648766673
2018-02-16 10:45:05.328000+01:00,-0.1163702311190928
2018-02-16 10:45:05.330000+01:00,-0.12754961029112377
2018-02-16 10:45:05.332000+01:00,-0.13393448594511614
2018-02-16 10:45:05.334000+01:00,-0.1345105982711282
2018-02-16 10:45:05.336000+01:00,-0.1299231970848077
2018-02-16 10:45:05.338000+01:00,-0.12218488366434438
2018-02-16 10:45:05.340000+01:00,-0.11400097673546092
2018-02-16 10:45:05.342000+01:00,-0.10793124238506649
2018-02-16 10:45:05.344000+01:00,-0.10564357654203727
2018-02-16 10:45:05.346000+01:00,-0.10747552396018623
2018-02-16 10:45:05.348000+01:00,-0.1124182948338116
2018-02-16 10:45:05.350000+01:00,-0.11850740592978173
2018-02-16 10:45:05.352000+01:00,-0.12348372299184782
2018-02-16 10:45:05.354000+01:00,-0.12551354204740284
2018-02-16 10:45:05.356000+01:00,-0.12374691090236098
2018-02-16 10:45:05.358000+01:00,-0.11855013275691183
2018-02-16 10:45:05.360000+01:00,-0.111352258434558
2018-02-16 10:45:05.362000+01:00,-0.10416398777736471
2018-02-16 10:45:05.364000+01:00,-0.09892499917347164
2018-02-16 10:45:05.366000+01:00,-0.09688379329467514
2018-02-16 10:45:05.368000+01:00,-0.09819963967632919
2018-02-16 10:45:05.370000+01:00,-0.10188504909327069
2018-02-16 10:45:05.372000+01:00,-0.10610197195321493
2018-02-16 10:45:05.374000+01:00,-0.10871788788807282
2018-02-16 10:45:05.376000+01:00,-0.10795117138998925
2018-02-16 10:45:05.378000+01:00,-0.10291094288144378
2018-02-16 10:45:05.380000+01:00,-0.09387126959596237
2018-02-16 10:45:05.382000+01:00,-0.08220158882266866
2018-02-16 10:45:05.384000+01:00,-0.06997916363501462
2018-02-16 10:45:05.386000+01:00,-0.059403747848925534
2018-02-16 10:45:05.388000+01:00,-0.05219131662292243
2018-02-16 10:45:05.390000+01:00,-0.04912634813420476
2018-02-16 10:45:05.392000+01:00,-0.04990082850088875
2018-02-16 10:45:05.394000+01:00,-0.05327919053501457
2018-02-16 10:45:05.396000+01:00,-0.05752916535201107
2018-02-16 10:45:05.398000+01:00,-0.06097912521507105
2018-02-16 10:45:05.400000+01:00,-0.06252670589338852
2018-02-16 10:45:05.402000+01:00,-0.06194166743839914
2018-02-16 10:45:05.404000+01:00,-0.05987201709143436
2018-02-16 10:45:05.406000+01:00,-0.05755589555921519
2018-02-16 10:45:05.408000+01:00,-0.056333946084806345
2018-02-16 10:45:05.410000+01:00,-0.057119681638279324
2018-02-16 10:45:05.412000+01:00,-0.059999606520773296
2018-02-16 10:45:05.414000+01:00,-0.06409610601157385
2018-02-16 10:45:05.416000+01:00,-0.0677460114289509
2018-02-16 10:45:05.418000+01:00,-0.06895046404562466
2018-02-16 10:45:05.420000+01:00,-0.06596665197927767
2018-02-16 10:45:05.422000+01:00,-0.05786505221137425
2018-02-16 10:45:05.424000+01:00,-0.044881538698367265
2018-02-16 10:45:05.426000+01:00,-0.028450941963023123
2018-02-16 10:45:05.428000+01:00,-0.01090078937192395
2018-02-16 10:45:05.430000+01:00,0.005116111001022436
2018-02-16 10:45:05.432000+01:00,0.01729347921690905
2018-02-16 10:45:05.434000+01:00,0.024258067669591727
2018-02-16 10:45:05.436000+01:00,0.025903537034538748
2018-02-16 10:45:05.438000+01:00,0.023375898779594634
2018-02-16 10:45:05.440000+01:00,0.01871470033805593
2018-02-16 10:45:05.442000+01:00,0.014253444030846768
2018-02-16 10:45:05.444000+01:00,0.011952314406751747
2018-02-16 10:45:05.446000+01:00,0.01285567980601728
2018-02-16 10:45:05.448000+01:00,0.01683024088382502
2018-02-16 10:45:05.450000+01:00,0.022657695892544415
2018-02-16 10:45:05.452000+01:00,0.028452227717267645
2018-02-16 10:45:05.454000+01:00,0.03227821224177408
2018-02-16 10:45:05.456000+01:00,0.032785006959896355
2018-02-16 10:45:05.458000+01:00,0.029670608441897464
2018-02-16 10:45:05.460000+01:00,0.023835911130446554
2018-02-16 10:45:05.462000+01:00,0.017181724276360836
2018-02-16 10:45:05.464000+01:00,0.012105276423514636
2018-02-16 10:45:05.466000+01:00,0.010841183434038556
2018-02-16 10:45:05.468000+01:00,0.014838026672425654
2018-02-16 10:45:05.470000+01:00,0.024352257618565274
2018-02-16 10:45:05.472000+01:00,0.03837873462025563
2018-02-16 10:45:05.474000+01:00,0.05493983827570338
2018-02-16 10:45:05.476000+01:00,0.07165097258427135
2018-02-16 10:45:05.478000+01:00,0.08639952693836786
2018-02-16 10:45:05.480000+01:00,0.09794051154798512
2018-02-16 10:45:05.482000+01:00,0.10623502537822996
2018-02-16 10:45:05.484000+01:00,0.11243106839815623
2018-02-16 10:45:05.486000+01:00,0.11848901778698781
2018-02-16 10:45:05.488000+01:00,0.12655692358745657
2018-02-16 10:45:05.490000+01:00,0.13827418204132536
2018-02-16 10:45:05.492000+01:00,0.1542049999082138
2018-02-16 10:45:05.494000+01:00,0.173568661382945
2018-02-16 10:45:05.496000+01:00,0.1943515119478732
2018-02-16 10:45:05.498000+01:00,0.21377883104863438
2018-02-16 10:45:05.500000+01:00,0.22902335141954763
2018-02-16 10:45:05.502000+01:00,0.23795952482336852
2018-02-16 10:45:05.504000+01:00,0.23975760847093827
2018-02-16 10:45:05.506000+01:00,0.235153351649466
2018-02-16 10:45:05.508000+01:00,0.22631582948692508
2018-02-16 10:45:05.510000+01:00,0.2163437526834513
2018-02-16 10:45:05.512000+01:00,0.20851978222147188
2018-02-16 10:45:05.514000+01:00,0.20551611710990825
2018-02-16 10:45:05.516000+01:00,0.20875610861487426
2018-02-16 10:45:05.518000+01:00,0.21809361261438726
2018-02-16 10:45:05.520000+01:00,0.2318867701875073
2018-02-16 10:45:05.522000+01:00,0.24743952553268297
2018-02-16 10:45:05.524000+01:00,0.26169039049299764
2018-02-16 10:45:05.526000+01:00,0.2719682841335312
2018-02-16 10:45:05.528000+01:00,0.27662432313732904
2018-02-16 10:45:05.530000+01:00,0.27538725994751706
2018-02-16 10:45:05.532000+01:00,0.26936660414400826
2018-02-16 10:45:05.534000+01:00,0.26071963300859496
2018-02-16 10:45:05.536000+01:00,0.2520816578847893
2018-02-16 10:45:05.538000+01:00,0.24591192790023375
2018-02-16 10:45:05.540000+01:00,0.24391849637311852
2018-02-16 10:45:05.542000+01:00,0.246694211502844
2018-02-16 10:45:05.544000+01:00,0.25363384707824355
2018-02-16 10:45:05.546000+01:00,0.26312781573012933
2018-02-16 10:45:05.548000+01:00,0.27296131111366867
2018-02-16 10:45:05.550000+01:00,0.280805681899671
2018-02-16 10:45:05.552000+01:00,0.28467986001657647
2018-02-16 10:45:05.554000+01:00,0.2832825340113428
2018-02-16 10:45:05.556000+01:00,0.2761407722381168
2018-02-16 10:45:05.558000+01:00,0.2635732143154068
2018-02-16 10:45:05.560000+01:00,0.24651068440983365
2018-02-16 10:45:05.562000+01:00,0.2262430717962941
2018-02-16 10:45:05.564000+01:00,0.20416422609692852
2018-02-16 10:45:05.566000+01:00,0.18156941862145048
2018-02-16 10:45:05.568000+01:00,0.15953121126785447
2018-02-16 10:45:05.570000+01:00,0.1388502268554242
2018-02-16 10:45:05.572000+01:00,0.12005686823798077
2018-02-16 10:45:05.574000+01:00,0.10343373787593559
2018-02-16 10:45:05.576000+01:00,0.08903602331819346
2018-02-16 10:45:05.578000+01:00,0.0767031539112063
2018-02-16 10:45:05.580000+01:00,0.06607164366228921
2018-02-16 10:45:05.582000+01:00,0.056608608060368514
2018-02-16 10:45:05.584000+01:00,0.04768350080699338
2018-02-16 10:45:05.586000+01:00,0.038682419347108164
2018-02-16 10:45:05.588000+01:00,0.02914973567005872
2018-02-16 10:45:05.590000+01:00,0.018923547177229844
2018-02-16 10:45:05.592000+01:00,0.008222330777251674
2018-02-16 10:45:05.594000+01:00,-0.0023547270197343383
2018-02-16 10:45:05.596000+01:00,-0.011931652801780454
2018-02-16 10:45:05.598000+01:00,-0.019552546700221215
2018-02-16 10:45:05.600000+01:00,-0.02442986307975335
2018-02-16 10:45:05.602000+01:00,-0.026181286091431364
2018-02-16 10:45:05.604000+01:00,-0.024987791005472746
2018-02-16 10:45:05.606000+01:00,-0.021620727523008792
2018-02-16 10:45:05.608000+01:00,-0.0173179428123678
2018-02-16 10:45:05.610000+01:00,-0.013529731454266156
2018-02-16 10:45:05.612000+01:00,-0.011593240925697797
2018-02-16 10:45:05.614000+01:00,-0.012417545965177615
2018-02-16 10:45:05.616000+01:00,-0.01626325111822591
2018-02-16 10:45:05.618000+01:00,-0.02267862367330318
2018-02-16 10:45:05.620000+01:00,-0.030614118017059648
2018-02-16 10:45:05.622000+01:00,-0.03868946878504089
2018-02-16 10:45:05.624000+01:00,-0.04554557019170576
2018-02-16 10:45:05.626000+01:00,-0.05018911237997937
2018-02-16 10:45:05.628000+01:00,-0.052238635967171466
2018-02-16 10:45:05.630000+01:00,-0.052006539529586816
2018-02-16 10:45:05.632000+01:00,-0.05039576734355422
2018-02-16 10:45:05.634000+01:00,-0.04864026235641102
2018-02-16 10:45:05.636000+01:00,-0.04796077809776748
2018-02-16 10:45:05.638000+01:00,-0.049230440422516945
2018-02-16 10:45:05.640000+01:00,-0.05274114593362795
2018-02-16 10:45:05.642000+01:00,-0.05813343570007916
2018-02-16 10:45:05.644000+01:00,-0.06450690051944259
2018-02-16 10:45:05.646000+01:00,-0.07067824344862197
2018-02-16 10:45:05.648000+01:00,-0.07551377929367525
2018-02-16 10:45:05.650000+01:00,-0.07824351353048989
2018-02-16 10:45:05.652000+01:00,-0.07867025811630446
2018-02-16 10:45:05.654000+01:00,-0.07721742112886829
2018-02-16 10:45:05.656000+01:00,-0.07480442932275469
2018-02-16 10:45:05.658000+01:00,-0.07258638464636977
2018-02-16 10:45:05.660000+01:00,-0.07163126462617318
2018-02-16 10:45:05.662000+01:00,-0.07262379791894494
2018-02-16 10:45:05.664000+01:00,-0.07567611997493694
2018-02-16 10:45:05.666000+01:00,-0.08029450914831654
2018-02-16 10:45:05.668000+01:00,-0.08550795682489631
2018-02-16 10:45:05.670000+01:00,-0.09012037639858339
2018-02-16 10:45:05.672000+01:00,-0.09301603377364182
2018-02-16 10:45:05.674000+01:00,-0.09343579666036642
2018-02-16 10:45:05.676000+01:00,-0.09115268749521768
2018-02-16 10:45:05.678000+01:00,-0.08650516619324358
2018-02-16 10:45:05.680000+01:00,-0.08028660885209966
2018-02-16 10:45:05.682000+01:00,-0.07352814739236106
2018-02-16 10:45:05.684000+01:00,-0.0672387539895448
2018-02-16 10:45:05.686000+01:00,-0.06217433774531032
2018-02-16 10:45:05.688000+01:00,-0.05869533397417084
2018-02-16 10:45:05.690000+01:00,-0.05674417874850316
2018-02-16 10:45:05.692000+01:00,-0.05593877139681708
2018-02-16 10:45:05.694000+01:00,-0.055745780508996916
2018-02-16 10:45:05.696000+01:00,-0.055677380853299645
2018-02-16 10:45:05.698000+01:00,-0.055451851806917946
2018-02-16 10:45:05.700000+01:00,-0.05507251315047108
2018-02-16 10:45:05.702000+01:00,-0.05480592643953607
2018-02-16 10:45:05.704000+01:00,-0.055071039062990754
2018-02-16 10:45:05.706000+01:00,-0.05627702828460728
2018-02-16 10:45:05.708000+01:00,-0.058661736033501284
2018-02-16 10:45:05.710000+01:00,-0.0621811951704242
2018-02-16 10:45:05.712000+01:00,-0.0664847882250855
2018-02-16 10:45:05.714000+01:00,-0.07098507556188108
2018-02-16 10:45:05.716000+01:00,-0.07500381199823633
2018-02-16 10:45:05.718000+01:00,-0.07795391533028813
2018-02-16 10:45:05.720000+01:00,-0.07950703631298288
2018-02-16 10:45:05.722000+01:00,-0.07970033437901694
2018-02-16 10:45:05.724000+01:00,-0.07895253089042709
2018-02-16 10:45:05.726000+01:00,-0.0779834110025315
2018-02-16 10:45:05.728000+01:00,-0.07765595850329693
2018-02-16 10:45:05.730000+01:00,-0.0787796079719122
2018-02-16 10:45:05.732000+01:00,-0.08192192471377584
2018-02-16 10:45:05.734000+01:00,-0.08727264619970501
2018-02-16 10:45:05.736000+01:00,-0.09459000996565971
2018-02-16 10:45:05.738000+01:00,-0.1032388475430165
2018-02-16 10:45:05.740000+01:00,-0.11230856470336542
2018-02-16 10:45:05.742000+01:00,-0.12078214841275706
2018-02-16 10:45:05.744000+01:00,-0.12771844494862444
2018-02-16 10:45:05.746000+01:00,-0.13241044293646714
2018-02-16 10:45:05.748000+01:00,-0.13449099960097047
2018-02-16 10:45:05.750000+01:00,-0.13397132124931282
2018-02-16 10:45:05.752000+01:00,-0.13121262236963754
2018-02-16 10:45:05.754000+01:00,-0.12684409041050043
2018-02-16 10:45:05.756000+01:00,-0.1216481147341226
2018-02-16 10:45:05.758000+01:00,-0.11643586912251228
2018-02-16 10:45:05.760000+01:00,-0.11193349898874003
2018-02-16 10:45:05.762000+01:00,-0.10869318050293296
2018-02-16 10:45:05.764000+01:00,-0.1070363805656237
2018-02-16 10:45:05.766000+01:00,-0.10703059594876763
2018-02-16 10:45:05.768000+01:00,-0.10849674127621192
2018-02-16 10:45:05.770000+01:00,-0.1110423061620435
2018-02-16 10:45:05.772000+01:00,-0.1141148080923677
2018-02-16 10:45:05.774000+01:00,-0.11707002040527908
2018-02-16 10:45:05.776000+01:00,-0.1192491702921907
2018-02-16 10:45:05.778000+01:00,-0.12005847900095257
2018-02-16 10:45:05.780000+01:00,-0.11904330934720021
2018-02-16 10:45:05.782000+01:00,-0.11594844585952666
2018-02-16 10:45:05.784000+01:00,-0.11075642006277633
2018-02-16 10:45:05.786000+01:00,-0.10369780472724441
2018-02-16 10:45:05.788000+01:00,-0.09523098840894115
2018-02-16 10:45:05.790000+01:00,-0.0859934953991698
2018-02-16 10:45:05.792000+01:00,-0.07673142562372648
2018-02-16 10:45:05.794000+01:00,-0.06821692711723679
2018-02-16 10:45:05.796000+01:00,-0.06116494987547302
2018-02-16 10:45:05.798000+01:00,-0.05615959984477381
2018-02-16 10:45:05.800000+01:00,-0.053597615351630164
2018-02-16 10:45:05.802000+01:00,-0.05365277858768165
2018-02-16 10:45:05.804000+01:00,-0.05626159970737813
2018-02-16 10:45:05.806000+01:00,-0.0611283484307246
2018-02-16 10:45:05.808000+01:00,-0.06774691932595603
2018-02-16 10:45:05.810000+01:00,-0.07543785496614867
2018-02-16 10:45:05.812000+01:00,-0.08340025669629435
2018-02-16 10:45:05.814000+01:00,-0.09077909989181271
2018-02-16 10:45:05.816000+01:00,-0.09674758325668147
2018-02-16 10:45:05.818000+01:00,-0.10060110432376208
2018-02-16 10:45:05.820000+01:00,-0.10185464497545915
2018-02-16 10:45:05.822000+01:00,-0.1003300351872384
2018-02-16 10:45:05.824000+01:00,-0.09621561956171543
2018-02-16 10:45:05.826000+01:00,-0.09008024849232063
2018-02-16 10:45:05.828000+01:00,-0.08282763663640226
2018-02-16 10:45:05.830000+01:00,-0.07558625114487866
2018-02-16 10:45:05.832000+01:00,-0.06954286027145516
2018-02-16 10:45:05.834000+01:00,-0.06574210982504364
2018-02-16 10:45:05.836000+01:00,-0.06488655967935972
2018-02-16 10:45:05.838000+01:00,-0.06717797022077424
2018-02-16 10:45:05.840000+01:00,-0.07223855234038891
2018-02-16 10:45:05.842000+01:00,-0.07913939869184897
2018-02-16 10:45:05.844000+01:00,-0.08654363884529612
2018-02-16 10:45:05.846000+01:00,-0.09294748975181473
2018-02-16 10:45:05.848000+01:00,-0.096978465474395
2018-02-16 10:45:05.850000+01:00,-0.09769233159154805
2018-02-16 10:45:05.852000+01:00,-0.09480396635251451
2018-02-16 10:45:05.854000+01:00,-0.08879503849955875
2018-02-16 10:45:05.856000+01:00,-0.08086319465189144
2018-02-16 10:45:05.858000+01:00,-0.0727097359160104
2018-02-16 10:45:05.860000+01:00,-0.06619907921519036
2018-02-16 10:45:05.862000+01:00,-0.06295551061001811
2018-02-16 10:45:05.864000+01:00,-0.06398283355127588
2018-02-16 10:45:05.866000+01:00,-0.06939456413966422
2018-02-16 10:45:05.868000+01:00,-0.07832415009274488
2018-02-16 10:45:05.870000+01:00,-0.08904876826573103
2018-02-16 10:45:05.872000+01:00,-0.09931356746762252
2018-02-16 10:45:05.874000+01:00,-0.10679596490120065
2018-02-16 10:45:05.876000+01:00,-0.10961300559883122
2018-02-16 10:45:05.878000+01:00,-0.10675843706863651
2018-02-16 10:45:05.880000+01:00,-0.09836546935435829
2018-02-16 10:45:05.882000+01:00,-0.08572579773161725
2018-02-16 10:45:05.884000+01:00,-0.07104875309985345
2018-02-16 10:45:05.886000+01:00,-0.05700475163740488
2018-02-16 10:45:05.888000+01:00,-0.04615033194270258
2018-02-16 10:45:05.890000+01:00,-0.040364601914344905
2018-02-16 10:45:05.892000+01:00,-0.04042971141320772
2018-02-16 10:45:05.894000+01:00,-0.045858669968919304
2018-02-16 10:45:05.896000+01:00,-0.055017976233578215
2018-02-16 10:45:05.898000+01:00,-0.06552260349408742
2018-02-16 10:45:05.900000+01:00,-0.07481360003851392
2018-02-16 10:45:05.902000+01:00,-0.08078086307641213
2018-02-16 10:45:05.904000+01:00,-0.08227836697289048
2018-02-16 10:45:05.906000+01:00,-0.07940151276495412
2018-02-16 10:45:05.908000+01:00,-0.07345221069050532
2018-02-16 10:45:05.910000+01:00,-0.06659394155812223
2018-02-16 10:45:05.912000+01:00,-0.06127763787453572
2018-02-16 10:45:05.914000+01:00,-0.05957977172997265
2018-02-16 10:45:05.916000+01:00,-0.06262038079103904
2018-02-16 10:45:05.918000+01:00,-0.07021297051280498
2018-02-16 10:45:05.920000+01:00,-0.08084300271141887
2018-02-16 10:45:05.922000+01:00,-0.0919900217567617
2018-02-16 10:45:05.924000+01:00,-0.10072068995177216
2018-02-16 10:45:05.926000+01:00,-0.10440865615006989
2018-02-16 10:45:05.928000+01:00,-0.10140115674071455
2018-02-16 10:45:05.930000+01:00,-0.09146174564576155
2018-02-16 10:45:05.932000+01:00,-0.075872137985147
2018-02-16 10:45:05.934000+01:00,-0.05716083489658646
2018-02-16 10:45:05.936000+01:00,-0.03852057286480653
2018-02-16 10:45:05.938000+01:00,-0.023056370540646628
2018-02-16 10:45:05.940000+01:00,-0.013050167398471122
2018-02-16 10:45:05.942000+01:00,-0.009424927341283501
2018-02-16 10:45:05.944000+01:00,-0.011541090088113297
2018-02-16 10:45:05.946000+01:00,-0.01737419548093692
2018-02-16 10:45:05.948000+01:00,-0.024026194750328616
2018-02-16 10:45:05.950000+01:00,-0.028439486962553547
2018-02-16 10:45:05.952000+01:00,-0.028133729077486878
2018-02-16 10:45:05.954000+01:00,-0.021783389687704508
2018-02-16 10:45:05.956000+01:00,-0.00949875365428948
2018-02-16 10:45:05.958000+01:00,0.007247912376186373
2018-02-16 10:45:05.960000+01:00,0.026017559910659575
2018-02-16 10:45:05.962000+01:00,0.04400744462548443
2018-02-16 10:45:05.964000+01:00,0.05870121063292808
2018-02-16 10:45:05.966000+01:00,0.06840180136327084
2018-02-16 10:45:05.968000+01:00,0.07252307504681921
2018-02-16 10:45:05.970000+01:00,0.07158677994009924
2018-02-16 10:45:05.972000+01:00,0.06695241365295786
2018-02-16 10:45:05.974000+01:00,0.06037577758286127
2018-02-16 10:45:05.976000+01:00,0.053529496140850924
2018-02-16 10:45:05.978000+01:00,0.04761661315755897
2018-02-16 10:45:05.980000+01:00,0.04316954106208059
2018-02-16 10:45:05.982000+01:00,0.040064550225327726
2018-02-16 10:45:05.984000+01:00,0.03771624898312262
2018-02-16 10:45:05.986000+01:00,0.03536693818122642
2018-02-16 10:45:05.988000+01:00,0.03236639783303811
2018-02-16 10:45:05.990000+01:00,0.028352770862818618
2018-02-16 10:45:05.992000+01:00,0.023288067577236598
2018-02-16 10:45:05.994000+01:00,0.01735719003559679
2018-02-16 10:45:05.996000+01:00,0.01078844243337794
2018-02-16 10:45:05.998000+01:00,0.0036798980625160262
2018-02-16 10:45:06+01:00,-0.0040889170607726075
2018-02-16 10:45:06.002000+01:00,-0.012814924338152588
2018-02-16 10:45:06.004000+01:00,-0.022805832687071505
2018-02-16 10:45:06.006000+01:00,-0.03414928659980807
2018-02-16 10:45:06.008000+01:00,-0.046507872945933
2018-02-16 10:45:06.010000+01:00,-0.059032262001094134
2018-02-16 10:45:06.012000+01:00,-0.07045207918411897
2018-02-16 10:45:06.014000+01:00,-0.07934649421542672
2018-02-16 10:45:06.016000+01:00,-0.08453196364868085
2018-02-16 10:45:06.018000+01:00,-0.08545460948872013
2018-02-16 10:45:06.020000+01:00,-0.08245756990082284
2018-02-16 10:45:06.022000+01:00,-0.07681803827930823
2018-02-16 10:45:06.024000+01:00,-0.07051038116819988
2018-02-16 10:45:06.026000+01:00,-0.06573403009917124
2018-02-16 10:45:06.028000+01:00,-0.06432316195404976
2018-02-16 10:45:06.030000+01:00,-0.06720422660357786
2018-02-16 10:45:06.032000+01:00,-0.07406915993826536
2018-02-16 10:45:06.034000+01:00,-0.08338210436650925
2018-02-16 10:45:06.036000+01:00,-0.09274690634499494
2018-02-16 10:45:06.038000+01:00,-0.09955621831752139
2018-02-16 10:45:06.040000+01:00,-0.10175204310041083
2018-02-16 10:45:06.042000+01:00,-0.09848086143509524
2018-02-16 10:45:06.044000+01:00,-0.09044145917119073
2018-02-16 10:45:06.046000+01:00,-0.07980009605554916
2018-02-16 10:45:06.048000+01:00,-0.06966700538528092
2018-02-16 10:45:06.050000+01:00,-0.06325758736285611
2018-02-16 10:45:06.052000+01:00,-0.06296314182192445
2018-02-16 10:45:06.054000+01:00,-0.06959759366675439
2018-02-16 10:45:06.056000+01:00,-0.08205230116873075
2018-02-16 10:45:06.058000+01:00,-0.09748616475603761
2018-02-16 10:45:06.060000+01:00,-0.11202953344222422
2018-02-16 10:45:06.062000+01:00,-0.12182901275169343
2018-02-16 10:45:06.064000+01:00,-0.1241505140807318
2018-02-16 10:45:06.066000+01:00,-0.11822430488353815
2018-02-16 10:45:06.068000+01:00,-0.10557253079235672
2018-02-16 10:45:06.070000+01:00,-0.08969512244370825
2018-02-16 10:45:06.072000+01:00,-0.075168958111614
2018-02-16 10:45:06.074000+01:00,-0.06638784272413012
2018-02-16 10:45:06.076000+01:00,-0.06628671793794913
2018-02-16 10:45:06.078000+01:00,-0.07541585045070184
2018-02-16 10:45:06.080000+01:00,-0.0916481489395157
2018-02-16 10:45:06.082000+01:00,-0.11063367668412695
2018-02-16 10:45:06.084000+01:00,-0.1269042998741012
2018-02-16 10:45:06.086000+01:00,-0.13533715187800796
2018-02-16 10:45:06.088000+01:00,-0.13256528845528
2018-02-16 10:45:06.090000+01:00,-0.11791634472421132
2018-02-16 10:45:06.092000+01:00,-0.09357363226964506
2018-02-16 10:45:06.094000+01:00,-0.06386312764529117
2018-02-16 10:45:06.096000+01:00,-0.033819834182531504
2018-02-16 10:45:06.098000+01:00,-0.007409138564253338
2018-02-16 10:45:06.100000+01:00,0.014091636214040089
2018-02-16 10:45:06.102000+01:00,0.03305131333946443
2018-02-16 10:45:06.104000+01:00,0.055428681250389265
2018-02-16 10:45:06.106000+01:00,0.08960337938840006
2018-02-16 10:45:06.108000+01:00,0.14429544795959703
2018-02-16 10:45:06.110000+01:00,0.226041107131144
2018-02-16 10:45:06.112000+01:00,0.3368503198074522
2018-02-16 10:45:06.114000+01:00,0.47267392621978105
2018-02-16 10:45:06.116000+01:00,0.6231465545531374
2018-02-16 10:45:06.118000+01:00,0.7727812155154767
2018-02-16 10:45:06.120000+01:00,0.9034426467375598
2018-02-16 10:45:06.122000+01:00,0.9976066128124907
2018-02-16 10:45:06.124000+01:00,1.041703665733011
2018-02-16 10:45:06.126000+01:00,1.0288035082223896
2018-02-16 10:45:06.128000+01:00,0.9600334625904122
2018-02-16 10:45:06.130000+01:00,0.8444093311089369
2018-02-16 10:45:06.132000+01:00,0.6971193048191824
2018-02-16 10:45:06.134000+01:00,0.5366521286894272
2018-02-16 10:45:06.136000+01:00,0.3814136337304069
2018-02-16 10:45:06.138000+01:00,0.24657076784143506
2018-02-16 10:45:06.140000+01:00,0.1417798751915805
2018-02-16 10:45:06.142000+01:00,0.07022172156588827
2018-02-16 10:45:06.144000+01:00,0.02904259734686056
2018-02-16 10:45:06.146000+01:00,0.0109719674772142
2018-02-16 10:45:06.148000+01:00,0.006633975736764172
2018-02-16 10:45:06.150000+01:00,0.006951224857850998
2018-02-16 10:45:06.152000+01:00,0.005076148863515263
2018-02-16 10:45:06.154000+01:00,-0.002541629755058907
2018-02-16 10:45:06.156000+01:00,-0.01608793279663105
2018-02-16 10:45:06.158000+01:00,-0.03318624424723952
2018-02-16 10:45:06.160000+01:00,-0.05023198639453575
2018-02-16 10:45:06.162000+01:00,-0.06382307345112154
2018-02-16 10:45:06.164000+01:00,-0.07187861826125272
2018-02-16 10:45:06.166000+01:00,-0.07417304006639974
2018-02-16 10:45:06.168000+01:00,-0.07220963369599098
2018-02-16 10:45:06.170000+01:00,-0.06855603183018107
2018-02-16 10:45:06.172000+01:00,-0.0659080232127893
2018-02-16 10:45:06.174000+01:00,-0.06620139374529638
2018-02-16 10:45:06.176000+01:00,-0.07004585945547706
2018-02-16 10:45:06.178000+01:00,-0.0766318923977294
2018-02-16 10:45:06.180000+01:00,-0.08410260778650935
2018-02-16 10:45:06.182000+01:00,-0.09023879315321534
2018-02-16 10:45:06.184000+01:00,-0.09321806983937608
2018-02-16 10:45:06.186000+01:00,-0.092201875578102
2018-02-16 10:45:06.188000+01:00,-0.08757382669157067
2018-02-16 10:45:06.190000+01:00,-0.08077409261634566
2018-02-16 10:45:06.192000+01:00,-0.07380632979114105
2018-02-16 10:45:06.194000+01:00,-0.06859464780076677
2018-02-16 10:45:06.196000+01:00,-0.06640758991811457
2018-02-16 10:45:06.198000+01:00,-0.06753413915443192
2018-02-16 10:45:06.200000+01:00,-0.07130604779384292
2018-02-16 10:45:06.202000+01:00,-0.07644221467665077
2018-02-16 10:45:06.204000+01:00,-0.08158334985808532
2018-02-16 10:45:06.206000+01:00,-0.08582338518431375
2018-02-16 10:45:06.208000+01:00,-0.08904748527607029
2018-02-16 10:45:06.210000+01:00,-0.0919535344861225
2018-02-16 10:45:06.212000+01:00,-0.09574267638910401
2018-02-16 10:45:06.214000+01:00,-0.10157957319081556
2018-02-16 10:45:06.216000+01:00,-0.11000704688435094
2018-02-16 10:45:06.218000+01:00,-0.12052473252851958
2018-02-16 10:45:06.220000+01:00,-0.1314978122150221
2018-02-16 10:45:06.222000+01:00,-0.1404618709611659
2018-02-16 10:45:06.224000+01:00,-0.14476353409343143
2018-02-16 10:45:06.226000+01:00,-0.14236289312704534
2018-02-16 10:45:06.228000+01:00,-0.13255894085390177
2018-02-16 10:45:06.230000+01:00,-0.11640533764121265
2018-02-16 10:45:06.232000+01:00,-0.09666173437951667
2018-02-16 10:45:06.234000+01:00,-0.0772547173813525
2018-02-16 10:45:06.236000+01:00,-0.062365424747555014
2018-02-16 10:45:06.238000+01:00,-0.05537601702015614
2018-02-16 10:45:06.240000+01:00,-0.057959668432054794
2018-02-16 10:45:06.242000+01:00,-0.06957137081957648
2018-02-16 10:45:06.244000+01:00,-0.0874953325064259
2018-02-16 10:45:06.246000+01:00,-0.1074563959101053
2018-02-16 10:45:06.248000+01:00,-0.12464886164922848
2018-02-16 10:45:06.250000+01:00,-0.13491971785408405
2018-02-16 10:45:06.252000+01:00,-0.13579758610233575
2018-02-16 10:45:06.254000+01:00,-0.12709699999548757
2018-02-16 10:45:06.256000+01:00,-0.11093967111081653
2018-02-16 10:45:06.258000+01:00,-0.09118929827985738
2018-02-16 10:45:06.260000+01:00,-0.07245155940478396
2018-02-16 10:45:06.262000+01:00,-0.058903812063197274
2018-02-16 10:45:06.264000+01:00,-0.0532594993202074
2018-02-16 10:45:06.266000+01:00,-0.05613053352941595
2018-02-16 10:45:06.268000+01:00,-0.06594005219471652
2018-02-16 10:45:06.270000+01:00,-0.07938965037485221
2018-02-16 10:45:06.272000+01:00,-0.09234064593946051
2018-02-16 10:45:06.274000+01:00,-0.10086698800312499
2018-02-16 10:45:06.276000+01:00,-0.1022039353061578
2018-02-16 10:45:06.278000+01:00,-0.09535769714503493
2018-02-16 10:45:06.280000+01:00,-0.08124225553083998
2018-02-16 10:45:06.282000+01:00,-0.0623402184082956
2018-02-16 10:45:06.284000+01:00,-0.042007830245049255
2018-02-16 10:45:06.286000+01:00,-0.023627313947632317
2018-02-16 10:45:06.288000+01:00,-0.009832679272569035
2018-02-16 10:45:06.290000+01:00,-0.0019960606144167094
2018-02-16 10:45:06.292000+01:00,-7.598353048411218e-05
2018-02-16 10:45:06.294000+01:00,-0.0028240180346336165
2018-02-16 10:45:06.296000+01:00,-0.008252723571733131
2018-02-16 10:45:06.298000+01:00,-0.014210573089261642
2018-02-16 10:45:06.300000+01:00,-0.018901115088440116
2018-02-16 10:45:06.302000+01:00,-0.02122129518785029
2018-02-16 10:45:06.304000+01:00,-0.020861747974275032
2018-02-16 10:45:06.306000+01:00,-0.018186759610792226
2018-02-16 10:45:06.308000+01:00,-0.013970509314774959
2018-02-16 10:45:06.310000+01:00,-0.009093402704935432
2018-02-16 10:45:06.312000+01:00,-0.004293560887465591
2018-02-16 10:45:06.314000+01:00,-3.140285221666758e-05
2018-02-16 10:45:06.316000+01:00,0.0035242822897328567
2018-02-16 10:45:06.318000+01:00,0.006423931571317699
2018-02-16 10:45:06.320000+01:00,0.008836671941718619
2018-02-16 10:45:06.322000+01:00,0.010976431524498042
2018-02-16 10:45:06.324000+01:00,0.013083750756644945
2018-02-16 10:45:06.326000+01:00,0.015456522131146979
2018-02-16 10:45:06.328000+01:00,0.01849249030583951
2018-02-16 10:45:06.330000+01:00,0.022694382945803556
2018-02-16 10:45:06.332000+01:00,0.028600675508143523
2018-02-16 10:45:06.334000+01:00,0.03663732994513296
2018-02-16 10:45:06.336000+01:00,0.04692620000785752
2018-02-16 10:45:06.338000+01:00,0.05911795244694557
2018-02-16 10:45:06.340000+01:00,0.07232694385706397
2018-02-16 10:45:06.342000+01:00,0.0852254648078633
2018-02-16 10:45:06.344000+01:00,0.09630850187884663
2018-02-16 10:45:06.346000+01:00,0.10428111149844148
2018-02-16 10:45:06.348000+01:00,0.10846821311499955
2018-02-16 10:45:06.350000+01:00,0.10912044650490302
2018-02-16 10:45:06.352000+01:00,0.10750213462099356
2018-02-16 10:45:06.354000+01:00,0.10569904162167454
2018-02-16 10:45:06.356000+01:00,0.10616219006605082
2018-02-16 10:45:06.358000+01:00,0.11108711057032367
2018-02-16 10:45:06.360000+01:00,0.12178955970860048
2018-02-16 10:45:06.362000+01:00,0.1382574587903216
2018-02-16 10:45:06.364000+01:00,0.15902476772910099
2018-02-16 10:45:06.366000+01:00,0.18143207411466278
2018-02-16 10:45:06.368000+01:00,0.20223164436171598
2018-02-16 10:45:06.370000+01:00,0.21839185668389785
2018-02-16 10:45:06.372000+01:00,0.22788843602244094
2018-02-16 10:45:06.374000+01:00,0.23026018447789223
2018-02-16 10:45:06.376000+01:00,0.22676138820222166
2018-02-16 10:45:06.378000+01:00,0.2200493957536312
2018-02-16 10:45:06.380000+01:00,0.21347551456155994
2018-02-16 10:45:06.382000+01:00,0.21016352148995315
2018-02-16 10:45:06.384000+01:00,0.21212812441354936
2018-02-16 10:45:06.386000+01:00,0.21968368426318718
2018-02-16 10:45:06.388000+01:00,0.23131917079408434
2018-02-16 10:45:06.390000+01:00,0.24408756505851364
2018-02-16 10:45:06.392000+01:00,0.25441199378966245
2018-02-16 10:45:06.394000+01:00,0.25908860883808144
2018-02-16 10:45:06.396000+01:00,0.25620388093621144
2018-02-16 10:45:06.398000+01:00,0.2457014675491414
2018-02-16 10:45:06.400000+01:00,0.22942832283304704
2018-02-16 10:45:06.402000+01:00,0.21063587451121416
2018-02-16 10:45:06.404000+01:00,0.1930687808798913
2018-02-16 10:45:06.406000+01:00,0.17989577282309777
2018-02-16 10:45:06.408000+01:00,0.17278818106104527
2018-02-16 10:45:06.410000+01:00,0.17141552302516244
2018-02-16 10:45:06.412000+01:00,0.17351262014949959
2018-02-16 10:45:06.414000+01:00,0.17551084083563506
2018-02-16 10:45:06.416000+01:00,0.17356317951452194
2018-02-16 10:45:06.418000+01:00,0.1646761430108935
2018-02-16 10:45:06.420000+01:00,0.14762538757287086
2018-02-16 10:45:06.422000+01:00,0.1233884656278075
2018-02-16 10:45:06.424000+01:00,0.09496203608498871
2018-02-16 10:45:06.426000+01:00,0.06660487687356825
2018-02-16 10:45:06.428000+01:00,0.0427123679894322
2018-02-16 10:45:06.430000+01:00,0.026635330429574767
2018-02-16 10:45:06.432000+01:00,0.019774755636938843
2018-02-16 10:45:06.434000+01:00,0.02120792650375658
2018-02-16 10:45:06.436000+01:00,0.02795192941929619
2018-02-16 10:45:06.438000+01:00,0.03579021204762616
2018-02-16 10:45:06.440000+01:00,0.04042847457189521
2018-02-16 10:45:06.442000+01:00,0.038653781357918915
2018-02-16 10:45:06.444000+01:00,0.02917206025501125
2018-02-16 10:45:06.446000+01:00,0.012893712657302393
2018-02-16 10:45:06.448000+01:00,-0.007402637273631101
2018-02-16 10:45:06.450000+01:00,-0.027918888155452983
2018-02-16 10:45:06.452000+01:00,-0.044943247799642365
2018-02-16 10:45:06.454000+01:00,-0.055887295369099955
2018-02-16 10:45:06.456000+01:00,-0.059954287801143515
2018-02-16 10:45:06.458000+01:00,-0.05825246188662241
2018-02-16 10:45:06.460000+01:00,-0.0533349268492481
2018-02-16 10:45:06.462000+01:00,-0.04831965388684843
2018-02-16 10:45:06.464000+01:00,-0.045867817364925796
2018-02-16 10:45:06.466000+01:00,-0.04733905817056255
2018-02-16 10:45:06.468000+01:00,-0.052385947374020525
2018-02-16 10:45:06.470000+01:00,-0.059113729983777376
2018-02-16 10:45:06.472000+01:00,-0.06475611034475279
2018-02-16 10:45:06.474000+01:00,-0.06665622684246982
2018-02-16 10:45:06.476000+01:00,-0.06324327395299123
2018-02-16 10:45:06.478000+01:00,-0.054690276691736685
2018-02-16 10:45:06.480000+01:00,-0.04303024460282145
2018-02-16 10:45:06.482000+01:00,-0.03167021023334777
2018-02-16 10:45:06.484000+01:00,-0.024427669614055573
2018-02-16 10:45:06.486000+01:00,-0.02436616057984851
2018-02-16 10:45:06.488000+01:00,-0.03277938480126358
2018-02-16 10:45:06.490000+01:00,-0.04864249180428195
2018-02-16 10:45:06.492000+01:00,-0.06872139511175664
2018-02-16 10:45:06.494000+01:00,-0.08834180830451864
2018-02-16 10:45:06.496000+01:00,-0.10262365497287508
2018-02-16 10:45:06.498000+01:00,-0.10784149146288054
2018-02-16 10:45:06.500000+01:00,-0.10252172219771659
2018-02-16 10:45:06.502000+01:00,-0.08794984963620471
2018-02-16 10:45:06.504000+01:00,-0.06792042070030613
2018-02-16 10:45:06.506000+01:00,-0.047774720129275465
2018-02-16 10:45:06.508000+01:00,-0.032976309870702505
2018-02-16 10:45:06.510000+01:00,-0.027612841090441962
2018-02-16 10:45:06.512000+01:00,-0.03324299576431828
2018-02-16 10:45:06.514000+01:00,-0.04841915365983293
2018-02-16 10:45:06.516000+01:00,-0.06903256522803008
2018-02-16 10:45:06.518000+01:00,-0.08939932183625007
2018-02-16 10:45:06.520000+01:00,-0.103796579705484
2018-02-16 10:45:06.522000+01:00,-0.10802879663359394
2018-02-16 10:45:06.524000+01:00,-0.100590746077651
2018-02-16 10:45:06.526000+01:00,-0.08310251489599907
2018-02-16 10:45:06.528000+01:00,-0.05989188366666511
2018-02-16 10:45:06.530000+01:00,-0.03683558239230338
2018-02-16 10:45:06.532000+01:00,-0.01977667832413167
2018-02-16 10:45:06.534000+01:00,-0.012952924600847614
2018-02-16 10:45:06.536000+01:00,-0.017867259677843392
2018-02-16 10:45:06.538000+01:00,-0.0329079851145938
2018-02-16 10:45:06.540000+01:00,-0.05381743222275804
2018-02-16 10:45:06.542000+01:00,-0.07487298226990466
2018-02-16 10:45:06.544000+01:00,-0.09044903280453355
2018-02-16 10:45:06.546000+01:00,-0.09652719657402495
2018-02-16 10:45:06.548000+01:00,-0.09174211959353837
2018-02-16 10:45:06.550000+01:00,-0.0776847986792393
2018-02-16 10:45:06.552000+01:00,-0.058395058331627114
2018-02-16 10:45:06.554000+01:00,-0.03920011010366067
2018-02-16 10:45:06.556000+01:00,-0.025233524379081825
2018-02-16 10:45:06.558000+01:00,-0.02004964705508529
2018-02-16 10:45:06.560000+01:00,-0.024711723296313787
2018-02-16 10:45:06.562000+01:00,-0.03759052845020374
2018-02-16 10:45:06.564000+01:00,-0.05490628141449714
2018-02-16 10:45:06.566000+01:00,-0.07183895906406304
2018-02-16 10:45:06.568000+01:00,-0.08387949370671671
2018-02-16 10:45:06.570000+01:00,-0.08803836457771094
2018-02-16 10:45:06.572000+01:00,-0.0835819120402246
2018-02-16 10:45:06.574000+01:00,-0.07211179296930173
2018-02-16 10:45:06.576000+01:00,-0.05699525719437586
2018-02-16 10:45:06.578000+01:00,-0.04233698288031908
2018-02-16 10:45:06.580000+01:00,-0.031804962032413085
2018-02-16 10:45:06.582000+01:00,-0.027650480692099414
2018-02-16 10:45:06.584000+01:00,-0.030190917548715657
2018-02-16 10:45:06.586000+01:00,-0.03787804544696719
2018-02-16 10:45:06.588000+01:00,-0.047898894140252536
2018-02-16 10:45:06.590000+01:00,-0.05710338691256239
2018-02-16 10:45:06.592000+01:00,-0.06296692873425007
2018-02-16 10:45:06.594000+01:00,-0.0642998273288371
2018-02-16 10:45:06.596000+01:00,-0.06150458037660678
2018-02-16 10:45:06.598000+01:00,-0.05632710497652868
2018-02-16 10:45:06.600000+01:00,-0.051203569063765164
2018-02-16 10:45:06.602000+01:00,-0.04842348099654208
2018-02-16 10:45:06.604000+01:00,-0.04937728299740342
2018-02-16 10:45:06.606000+01:00,-0.05412061414360266
2018-02-16 10:45:06.608000+01:00,-0.06138111632041782
2018-02-16 10:45:06.610000+01:00,-0.06899161955329264
2018-02-16 10:45:06.612000+01:00,-0.07460041911313477
2018-02-16 10:45:06.614000+01:00,-0.07642610179513001
2018-02-16 10:45:06.616000+01:00,-0.07381576576010021
2018-02-16 10:45:06.618000+01:00,-0.06743279463888559
2018-02-16 10:45:06.620000+01:00,-0.05902129134563846
2018-02-16 10:45:06.622000+01:00,-0.0508301559742012
2018-02-16 10:45:06.624000+01:00,-0.04488766263335273
2018-02-16 10:45:06.626000+01:00,-0.04236343348187637
2018-02-16 10:45:06.628000+01:00,-0.043224704458447887
2018-02-16 10:45:06.630000+01:00,-0.04629746454646834
2018-02-16 10:45:06.632000+01:00,-0.04971105585081812
2018-02-16 10:45:06.634000+01:00,-0.05157910532203088
2018-02-16 10:45:06.636000+01:00,-0.050690434993281484
2018-02-16 10:45:06.638000+01:00,-0.046976701658262475
2018-02-16 10:45:06.640000+01:00,-0.04159219233753963
2018-02-16 10:45:06.642000+01:00,-0.03656484929270858
2018-02-16 10:45:06.644000+01:00,-0.0341178694421962
2018-02-16 10:45:06.646000+01:00,-0.035873755156852864
2018-02-16 10:45:06.648000+01:00,-0.042200875104716
2018-02-16 10:45:06.650000+01:00,-0.051929115974803666
2018-02-16 10:45:06.652000+01:00,-0.06255388060371907
2018-02-16 10:45:06.654000+01:00,-0.07089763380971749
2018-02-16 10:45:06.656000+01:00,-0.07405080140774165
2018-02-16 10:45:06.658000+01:00,-0.0703151004604968
2018-02-16 10:45:06.660000+01:00,-0.05985486711376195
2018-02-16 10:45:06.662000+01:00,-0.04483439199465291
2018-02-16 10:45:06.664000+01:00,-0.02896321733853737
2018-02-16 10:45:06.666000+01:00,-0.0165460236049598
2018-02-16 10:45:06.668000+01:00,-0.011287653204068044
2018-02-16 10:45:06.670000+01:00,-0.01518997641936668
2018-02-16 10:45:06.672000+01:00,-0.02786744903710329
2018-02-16 10:45:06.674000+01:00,-0.0465016847666833
2018-02-16 10:45:06.676000+01:00,-0.06648009840359456
2018-02-16 10:45:06.678000+01:00,-0.08256870407174041
2018-02-16 10:45:06.680000+01:00,-0.09031062539907751
2018-02-16 10:45:06.682000+01:00,-0.08726681616924922
2018-02-16 10:45:06.684000+01:00,-0.07374783142416647
2018-02-16 10:45:06.686000+01:00,-0.05281860187201049
2018-02-16 10:45:06.688000+01:00,-0.0295562469255934
2018-02-16 10:45:06.690000+01:00,-0.00974884020494817
2018-02-16 10:45:06.692000+01:00,0.0016181913803479976
2018-02-16 10:45:06.694000+01:00,0.0016774209140831614
2018-02-16 10:45:06.696000+01:00,-0.009563902174399069
2018-02-16 10:45:06.698000+01:00,-0.029234968512028513
2018-02-16 10:45:06.700000+01:00,-0.05237880849017387
2018-02-16 10:45:06.702000+01:00,-0.07328342234175712
2018-02-16 10:45:06.704000+01:00,-0.08700190416715067
2018-02-16 10:45:06.706000+01:00,-0.09064625537666231
2018-02-16 10:45:06.708000+01:00,-0.0841046790388407
2018-02-16 10:45:06.710000+01:00,-0.06999425238366808
2018-02-16 10:45:06.712000+01:00,-0.05287398159390255
2018-02-16 10:45:06.714000+01:00,-0.03794718446376182
2018-02-16 10:45:06.716000+01:00,-0.029619761316919933
2018-02-16 10:45:06.718000+01:00,-0.03031428396636648
2018-02-16 10:45:06.720000+01:00,-0.03986093091676072
2018-02-16 10:45:06.722000+01:00,-0.0556189884775214
2018-02-16 10:45:06.724000+01:00,-0.07327554518239936
2018-02-16 10:45:06.726000+01:00,-0.08808033611745925
2018-02-16 10:45:06.728000+01:00,-0.0961601774905724
2018-02-16 10:45:06.730000+01:00,-0.09554435632665811
2018-02-16 10:45:06.732000+01:00,-0.08662487859632181
2018-02-16 10:45:06.734000+01:00,-0.07194384100803271
2018-02-16 10:45:06.736000+01:00,-0.05539442553514127
2018-02-16 10:45:06.738000+01:00,-0.04108576968770123
2018-02-16 10:45:06.740000+01:00,-0.032208876999396015
2018-02-16 10:45:06.742000+01:00,-0.030227675311797157
2018-02-16 10:45:06.744000+01:00,-0.034612727272240795
2018-02-16 10:45:06.746000+01:00,-0.04316844918226525
2018-02-16 10:45:06.748000+01:00,-0.052828296000379686
2018-02-16 10:45:06.750000+01:00,-0.0606583278277285
2018-02-16 10:45:06.752000+01:00,-0.06475641879193858
2018-02-16 10:45:06.754000+01:00,-0.06477597549093617
2018-02-16 10:45:06.756000+01:00,-0.0619249829660978
2018-02-16 10:45:06.758000+01:00,-0.05845546644702106
2018-02-16 10:45:06.760000+01:00,-0.0568150559259298
2018-02-16 10:45:06.762000+01:00,-0.058734353846567944
2018-02-16 10:45:06.764000+01:00,-0.06454126200022578
2018-02-16 10:45:06.766000+01:00,-0.07292201641308887
2018-02-16 10:45:06.768000+01:00,-0.08121078183586775
2018-02-16 10:45:06.770000+01:00,-0.08612732487235877
2018-02-16 10:45:06.772000+01:00,-0.08474454004698888
2018-02-16 10:45:06.774000+01:00,-0.07539576185782627
2018-02-16 10:45:06.776000+01:00,-0.0582471776697042
2018-02-16 10:45:06.778000+01:00,-0.035358400408717544
2018-02-16 10:45:06.780000+01:00,-0.010204956489986417
2018-02-16 10:45:06.782000+01:00,0.013204947384067465
2018-02-16 10:45:06.784000+01:00,0.03136765609202966
2018-02-16 10:45:06.786000+01:00,0.04217870036240405
2018-02-16 10:45:06.788000+01:00,0.04543077626088917
2018-02-16 10:45:06.790000+01:00,0.04277790003643993
2018-02-16 10:45:06.792000+01:00,0.03718479201389218
2018-02-16 10:45:06.794000+01:00,0.03202971305879023
2018-02-16 10:45:06.796000+01:00,0.030127147178735627
2018-02-16 10:45:06.798000+01:00,0.03295541298616876
2018-02-16 10:45:06.800000+01:00,0.04030881049066675
2018-02-16 10:45:06.802000+01:00,0.05046453278709244
2018-02-16 10:45:06.804000+01:00,0.06080031471569689
2018-02-16 10:45:06.806000+01:00,0.06866567509363128
2018-02-16 10:45:06.808000+01:00,0.07223692564118368
2018-02-16 10:45:06.810000+01:00,0.07109483769960154
2018-02-16 10:45:06.812000+01:00,0.06635055639585045
2018-02-16 10:45:06.814000+01:00,0.06028347121025318
2018-02-16 10:45:06.816000+01:00,0.05560268149831997
2018-02-16 10:45:06.818000+01:00,0.05455727968072707
2018-02-16 10:45:06.820000+01:00,0.05816636529435008
2018-02-16 10:45:06.822000+01:00,0.06580440256846226
2018-02-16 10:45:06.824000+01:00,0.07527229136449778
2018-02-16 10:45:06.826000+01:00,0.0833410231595306
2018-02-16 10:45:06.828000+01:00,0.08661574791744767
2018-02-16 10:45:06.830000+01:00,0.08247441181568708
2018-02-16 10:45:06.832000+01:00,0.06981390327471404
2018-02-16 10:45:06.834000+01:00,0.04939324409617223
2018-02-16 10:45:06.836000+01:00,0.023680139912278127
2018-02-16 10:45:06.838000+01:00,-0.0037509131989439566
2018-02-16 10:45:06.840000+01:00,-0.02909559698021352
2018-02-16 10:45:06.842000+01:00,-0.04922607841171431
2018-02-16 10:45:06.844000+01:00,-0.062381098261254035
2018-02-16 10:45:06.846000+01:00,-0.06846486266700866
2018-02-16 10:45:06.848000+01:00,-0.06889785574699236
2018-02-16 10:45:06.850000+01:00,-0.06609197180938614
2018-02-16 10:45:06.852000+01:00,-0.06272427772691454
2018-02-16 10:45:06.854000+01:00,-0.06102913139528568
2018-02-16 10:45:06.856000+01:00,-0.06230618009201886
2018-02-16 10:45:06.858000+01:00,-0.06676172469039295
2018-02-16 10:45:06.860000+01:00,-0.07369020225028292
2018-02-16 10:45:06.862000+01:00,-0.08189680318470641
2018-02-16 10:45:06.864000+01:00,-0.09019444180173544
2018-02-16 10:45:06.866000+01:00,-0.0977984150485901
2018-02-16 10:45:06.868000+01:00,-0.10449105190356645
2018-02-16 10:45:06.870000+01:00,-0.11051844512357459
2018-02-16 10:45:06.872000+01:00,-0.11628098990478489
2018-02-16 10:45:06.874000+01:00,-0.12195509072925924
2018-02-16 10:45:06.876000+01:00,-0.12720938363779394
2018-02-16 10:45:06.878000+01:00,-0.13114601541751097
2018-02-16 10:45:06.880000+01:00,-0.13251642860239526
2018-02-16 10:45:06.882000+01:00,-0.1301586464570003
2018-02-16 10:45:06.884000+01:00,-0.12351401749621096
2018-02-16 10:45:06.886000+01:00,-0.11303716500099761
2018-02-16 10:45:06.888000+01:00,-0.10033101692081278
2018-02-16 10:45:06.890000+01:00,-0.08791677435467275
2018-02-16 10:45:06.892000+01:00,-0.07866404814829736
2018-02-16 10:45:06.894000+01:00,-0.0750231668110323
2018-02-16 10:45:06.896000+01:00,-0.07828144198780199
2018-02-16 10:45:06.898000+01:00,-0.0880794011623352
2018-02-16 10:45:06.900000+01:00,-0.102362552998849
2018-02-16 10:45:06.902000+01:00,-0.11782334597313682
2018-02-16 10:45:06.904000+01:00,-0.13074083259266897
2018-02-16 10:45:06.906000+01:00,-0.13799664226245653
2018-02-16 10:45:06.908000+01:00,-0.13797650067237746
2018-02-16 10:45:06.910000+01:00,-0.13108186190756896
2018-02-16 10:45:06.912000+01:00,-0.11967660085507231
2018-02-16 10:45:06.914000+01:00,-0.10745330389882082
2018-02-16 10:45:06.916000+01:00,-0.09837712088822234
2018-02-16 10:45:06.918000+01:00,-0.09550036869016598
2018-02-16 10:45:06.920000+01:00,-0.09999491641824243
2018-02-16 10:45:06.922000+01:00,-0.1107011246797981
2018-02-16 10:45:06.924000+01:00,-0.12435088398649882
2018-02-16 10:45:06.926000+01:00,-0.13642579569373559
2018-02-16 10:45:06.928000+01:00,-0.14241615800145724
2018-02-16 10:45:06.930000+01:00,-0.13911123135240516
2018-02-16 10:45:06.932000+01:00,-0.1255205064987739
2018-02-16 10:45:06.934000+01:00,-0.10311484082456177
2018-02-16 10:45:06.936000+01:00,-0.07526591340027833
2018-02-16 10:45:06.938000+01:00,-0.04600209579490801
2018-02-16 10:45:06.940000+01:00,-0.018420398501691776
2018-02-16 10:45:06.942000+01:00,0.006769263828323378
2018-02-16 10:45:06.944000+01:00,0.032085695598086814
2018-02-16 10:45:06.946000+01:00,0.06315843001314583
2018-02-16 10:45:06.948000+01:00,0.10755335663519613
2018-02-16 10:45:06.950000+01:00,0.17274306726035676
2018-02-16 10:45:06.952000+01:00,0.2636890869524284
2018-02-16 10:45:06.954000+01:00,0.3806607813911565
2018-02-16 10:45:06.956000+01:00,0.5179141732869964
2018-02-16 10:45:06.958000+01:00,0.6636836025309092
2018-02-16 10:45:06.960000+01:00,0.8016361276360808
2018-02-16 10:45:06.962000+01:00,0.9135763280043657
2018-02-16 10:45:06.964000+01:00,0.9828602747948456
2018-02-16 10:45:06.966000+01:00,0.9977691464812586
2018-02-16 10:45:06.968000+01:00,0.9540637545937045
2018-02-16 10:45:06.970000+01:00,0.8561045111401802
2018-02-16 10:45:06.972000+01:00,0.7162409116122619
2018-02-16 10:45:06.974000+01:00,0.5525732307374718
2018-02-16 10:45:06.976000+01:00,0.385568222507987
2018-02-16 10:45:06.978000+01:00,0.23427568889632866
2018-02-16 10:45:06.980000+01:00,0.11297793525546657
2018-02-16 10:45:06.982000+01:00,0.028989147912389147
2018-02-16 10:45:06.984000+01:00,-0.017962843215190618
2018-02-16 10:45:06.986000+01:00,-0.034721114106930025
2018-02-16 10:45:06.988000+01:00,-0.0323807220878706
2018-02-16 10:45:06.990000+01:00,-0.02328410677289615
2018-02-16 10:45:06.992000+01:00,-0.018074154478910618
2018-02-16 10:45:06.994000+01:00,-0.02348668301639248
2018-02-16 10:45:06.996000+01:00,-0.04133873072743077
2018-02-16 10:45:06.998000+01:00,-0.06884406092328527
2018-02-16 10:45:07+01:00,-0.10004972391566751
2018-02-16 10:45:07.002000+01:00,-0.12792375219909408
2018-02-16 10:45:07.004000+01:00,-0.14649737563178727
2018-02-16 10:45:07.006000+01:00,-0.1525000761823706
2018-02-16 10:45:07.008000+01:00,-0.14610345585296064
2018-02-16 10:45:07.010000+01:00,-0.13065495000170496
2018-02-16 10:45:07.012000+01:00,-0.11155957880746438
2018-02-16 10:45:07.014000+01:00,-0.09468297701512396
2018-02-16 10:45:07.016000+01:00,-0.0847485749654086
2018-02-16 10:45:07.018000+01:00,-0.0841668845985317
2018-02-16 10:45:07.020000+01:00,-0.0925837407531947
2018-02-16 10:45:07.022000+01:00,-0.10721587077587655
2018-02-16 10:45:07.024000+01:00,-0.12382056975137568
2018-02-16 10:45:07.026000+01:00,-0.13798272569841752
2018-02-16 10:45:07.028000+01:00,-0.14633833039931743
2018-02-16 10:45:07.030000+01:00,-0.14740015111078844
2018-02-16 10:45:07.032000+01:00,-0.141788053315888
2018-02-16 10:45:07.034000+01:00,-0.13184907894255554
2018-02-16 10:45:07.036000+01:00,-0.1208261444828832
2018-02-16 10:45:07.038000+01:00,-0.11185030785076808
2018-02-16 10:45:07.040000+01:00,-0.10706055311261145
2018-02-16 10:45:07.042000+01:00,-0.10709431668046998
2018-02-16 10:45:07.044000+01:00,-0.11106493028603112
2018-02-16 10:45:07.046000+01:00,-0.11699007558835164
2018-02-16 10:45:07.048000+01:00,-0.12250446050764105
2018-02-16 10:45:07.050000+01:00,-0.12561763684846666
2018-02-16 10:45:07.052000+01:00,-0.12528221558175148
2018-02-16 10:45:07.054000+01:00,-0.12161295380391823
2018-02-16 10:45:07.056000+01:00,-0.11571660061995657
2018-02-16 10:45:07.058000+01:00,-0.10921727561614938
2018-02-16 10:45:07.060000+01:00,-0.1036538295204384
2018-02-16 10:45:07.062000+01:00,-0.09995718480970349
2018-02-16 10:45:07.064000+01:00,-0.09817963160770216
2018-02-16 10:45:07.066000+01:00,-0.09755807797685986
2018-02-16 10:45:07.068000+01:00,-0.09687929463107642
2018-02-16 10:45:07.070000+01:00,-0.09501393387352591
2018-02-16 10:45:07.072000+01:00,-0.0914295318094992
2018-02-16 10:45:07.074000+01:00,-0.08649840906406694
2018-02-16 10:45:07.076000+01:00,-0.08148231852405088
2018-02-16 10:45:07.078000+01:00,-0.07818102593052548
2018-02-16 10:45:07.080000+01:00,-0.07834366437344521
2018-02-16 10:45:07.082000+01:00,-0.08302453526785504
2018-02-16 10:45:07.084000+01:00,-0.09209258169919438
2018-02-16 10:45:07.086000+01:00,-0.10406630421263638
2018-02-16 10:45:07.088000+01:00,-0.11635349582485824
2018-02-16 10:45:07.090000+01:00,-0.12585473805446007
2018-02-16 10:45:07.092000+01:00,-0.12977687731276957
2018-02-16 10:45:07.094000+01:00,-0.1264317396627312
2018-02-16 10:45:07.096000+01:00,-0.11578830068750015
2018-02-16 10:45:07.098000+01:00,-0.09960705569935696
2018-02-16 10:45:07.100000+01:00,-0.08109734006259314
2018-02-16 10:45:07.102000+01:00,-0.0641705395089463
2018-02-16 10:45:07.104000+01:00,-0.05247700315018858
2018-02-16 10:45:07.106000+01:00,-0.048479078626607
2018-02-16 10:45:07.108000+01:00,-0.05280815803244696
2018-02-16 10:45:07.110000+01:00,-0.06408055411807428
2018-02-16 10:45:07.112000+01:00,-0.0792253444881739
2018-02-16 10:45:07.114000+01:00,-0.09424062125854321
2018-02-16 10:45:07.116000+01:00,-0.10518059022539655
2018-02-16 10:45:07.118000+01:00,-0.10911592831189346
2018-02-16 10:45:07.120000+01:00,-0.10481975155314602
2018-02-16 10:45:07.122000+01:00,-0.0930079735288753
2018-02-16 10:45:07.124000+01:00,-0.07608394358999308
2018-02-16 10:45:07.126000+01:00,-0.05746923746968751
2018-02-16 10:45:07.128000+01:00,-0.040709154230624954
2018-02-16 10:45:07.130000+01:00,-0.028594408200284787
2018-02-16 10:45:07.132000+01:00,-0.02252672965672877
2018-02-16 10:45:07.134000+01:00,-0.02228134738662829
2018-02-16 10:45:07.136000+01:00,-0.026206055743512334
2018-02-16 10:45:07.138000+01:00,-0.031777199631049115
2018-02-16 10:45:07.140000+01:00,-0.03634052111751546
2018-02-16 10:45:07.142000+01:00,-0.03782391854740435
2018-02-16 10:45:07.144000+01:00,-0.03522908888240939
2018-02-16 10:45:07.146000+01:00,-0.028781727482732066
2018-02-16 10:45:07.148000+01:00,-0.01972288319391986
2018-02-16 10:45:07.150000+01:00,-0.009826940403190437
2018-02-16 10:45:07.152000+01:00,-0.000805340394583389
2018-02-16 10:45:07.154000+01:00,0.00622029572843676
2018-02-16 10:45:07.156000+01:00,0.01102168272772862
2018-02-16 10:45:07.158000+01:00,0.014263502097414728
2018-02-16 10:45:07.160000+01:00,0.017213025891591748
2018-02-16 10:45:07.162000+01:00,0.02126086125044106
2018-02-16 10:45:07.164000+01:00,0.027408790808798097
2018-02-16 10:45:07.166000+01:00,0.035887866701978924
2018-02-16 10:45:07.168000+01:00,0.04602836109188701
2018-02-16 10:45:07.170000+01:00,0.05642592551153167
2018-02-16 10:45:07.172000+01:00,0.06535846334902189
2018-02-16 10:45:07.174000+01:00,0.07133212384207122
2018-02-16 10:45:07.176000+01:00,0.07359444340302587
2018-02-16 10:45:07.178000+01:00,0.0724594037165909
2018-02-16 10:45:07.180000+01:00,0.06934082745667225
2018-02-16 10:45:07.182000+01:00,0.06647213654313301
2018-02-16 10:45:07.184000+01:00,0.06637882092083441
2018-02-16 10:45:07.186000+01:00,0.07124016312281514
2018-02-16 10:45:07.188000+01:00,0.08230939570926654
2018-02-16 10:45:07.190000+01:00,0.09954780066650196
2018-02-16 10:45:07.192000+01:00,0.12157246783824616
2018-02-16 10:45:07.194000+01:00,0.14593516509538534
2018-02-16 10:45:07.196000+01:00,0.169663593564563
2018-02-16 10:45:07.198000+01:00,0.1899293069082343
2018-02-16 10:45:07.200000+01:00,0.20467611271180408
2018-02-16 10:45:07.202000+01:00,0.21305593699898176
2018-02-16 10:45:07.204000+01:00,0.21557116601992687
2018-02-16 10:45:07.206000+01:00,0.21389852307566873
2018-02-16 10:45:07.208000+01:00,0.21044899232430545
2018-02-16 10:45:07.210000+01:00,0.2077805667635877
2018-02-16 10:45:07.212000+01:00,0.20801057100991988
2018-02-16 10:45:07.214000+01:00,0.21236607384340467
2018-02-16 10:45:07.216000+01:00,0.2209687940851673
2018-02-16 10:45:07.218000+01:00,0.23288775643540788
2018-02-16 10:45:07.220000+01:00,0.24642618119841592
2018-02-16 10:45:07.222000+01:00,0.25955578747132246
2018-02-16 10:45:07.224000+01:00,0.2703841691981596
2018-02-16 10:45:07.226000+01:00,0.27754383864545923
2018-02-16 10:45:07.228000+01:00,0.2804213586526372
2018-02-16 10:45:07.230000+01:00,0.2791915802759694
2018-02-16 10:45:07.232000+01:00,0.27467194945435297
2018-02-16 10:45:07.234000+01:00,0.2680522983421085
2018-02-16 10:45:07.236000+01:00,0.2605775553550094
2018-02-16 10:45:07.238000+01:00,0.25326128194475755
2018-02-16 10:45:07.240000+01:00,0.24668972951226925
2018-02-16 10:45:07.242000+01:00,0.2409464922878833
2018-02-16 10:45:07.244000+01:00,0.23565597015251824
2018-02-16 10:45:07.246000+01:00,0.23011803852507487
2018-02-16 10:45:07.248000+01:00,0.2234918099401445
2018-02-16 10:45:07.250000+01:00,0.2149844455372752
2018-02-16 10:45:07.252000+01:00,0.20400927667589913
2018-02-16 10:45:07.254000+01:00,0.19029139050791083
2018-02-16 10:45:07.256000+01:00,0.1739132557358472
2018-02-16 10:45:07.258000+01:00,0.15530409346370036
2018-02-16 10:45:07.260000+01:00,0.1351829190480651
2018-02-16 10:45:07.262000+01:00,0.11446710501687485
2018-02-16 10:45:07.264000+01:00,0.09415802800127691
2018-02-16 10:45:07.266000+01:00,0.07521518346747187
2018-02-16 10:45:07.268000+01:00,0.0584314527602185
2018-02-16 10:45:07.270000+01:00,0.04432479134390266
2018-02-16 10:45:07.272000+01:00,0.033063766063701885
2018-02-16 10:45:07.274000+01:00,0.024443709697081362
2018-02-16 10:45:07.276000+01:00,0.017924856981924652
2018-02-16 10:45:07.278000+01:00,0.012733264675108224
2018-02-16 10:45:07.280000+01:00,0.008011301087982902
2018-02-16 10:45:07.282000+01:00,0.0029905653322510823
2018-02-16 10:45:07.284000+01:00,-0.0028493385337456287
2018-02-16 10:45:07.286000+01:00,-0.009673880363544064
2018-02-16 10:45:07.288000+01:00,-0.017267290716307858
2018-02-16 10:45:07.290000+01:00,-0.02509773214373469
2018-02-16 10:45:07.292000+01:00,-0.032462102167452885
2018-02-16 10:45:07.294000+01:00,-0.03867703646624963
2018-02-16 10:45:07.296000+01:00,-0.04326855338782092
2018-02-16 10:45:07.298000+01:00,-0.04611071629769039
2018-02-16 10:45:07.300000+01:00,-0.04747509861840939
2018-02-16 10:45:07.302000+01:00,-0.04797529273296167
2018-02-16 10:45:07.304000+01:00,-0.048418385055641604
2018-02-16 10:45:07.306000+01:00,-0.04960066675664039
2018-02-16 10:45:07.308000+01:00,-0.05210065419240265
2018-02-16 10:45:07.310000+01:00,-0.05612403398745892
2018-02-16 10:45:07.312000+01:00,-0.06144174603908207
2018-02-16 10:45:07.314000+01:00,-0.06743764458029342
2018-02-16 10:45:07.316000+01:00,-0.07325293542141473
2018-02-16 10:45:07.318000+01:00,-0.07798912177838363
2018-02-16 10:45:07.320000+01:00,-0.08091663763101822
2018-02-16 10:45:07.322000+01:00,-0.08163665682388194
2018-02-16 10:45:07.324000+01:00,-0.08015830750942912
2018-02-16 10:45:07.326000+01:00,-0.07687803695787299
2018-02-16 10:45:07.328000+01:00,-0.07247470576490261
2018-02-16 10:45:07.330000+01:00,-0.06775520971366411
2018-02-16 10:45:07.332000+01:00,-0.06349501631669904
2018-02-16 10:45:07.334000+01:00,-0.0603137148078536
2018-02-16 10:45:07.336000+01:00,-0.05860971229551031
2018-02-16 10:45:07.338000+01:00,-0.058556369306163744
2018-02-16 10:45:07.340000+01:00,-0.06014172260514412
2018-02-16 10:45:07.342000+01:00,-0.0632222958540592
2018-02-16 10:45:07.344000+01:00,-0.06756210247429997
2018-02-16 10:45:07.346000+01:00,-0.0728402570806273
2018-02-16 10:45:07.348000+01:00,-0.07862985952453733
2018-02-16 10:45:07.350000+01:00,-0.08436959061357167
2018-02-16 10:45:07.352000+01:00,-0.08936016629313294
2018-02-16 10:45:07.354000+01:00,-0.09281532142351555
2018-02-16 10:45:07.356000+01:00,-0.09398069829046335
2018-02-16 10:45:07.358000+01:00,-0.09230823689523437
2018-02-16 10:45:07.360000+01:00,-0.08764668035510048
2018-02-16 10:45:07.362000+01:00,-0.08039036208234022
2018-02-16 10:45:07.364000+01:00,-0.0715265203877553
2018-02-16 10:45:07.366000+01:00,-0.06253939511467213
2018-02-16 10:45:07.368000+01:00,-0.05516455408809936
2018-02-16 10:45:07.370000+01:00,-0.051030563716945
2018-02-16 10:45:07.372000+01:00,-0.051264743510148265
2018-02-16 10:45:07.374000+01:00,-0.05616262058286812
2018-02-16 10:45:07.376000+01:00,-0.06501778045269713
2018-02-16 10:45:07.378000+01:00,-0.0761778263142393
2018-02-16 10:45:07.380000+01:00,-0.08733896947091344
2018-02-16 10:45:07.382000+01:00,-0.0960292928505847
2018-02-16 10:45:07.384000+01:00,-0.10017573254920512
2018-02-16 10:45:07.386000+01:00,-0.09861835617400799
2018-02-16 10:45:07.388000+01:00,-0.09143820180478181
2018-02-16 10:45:07.390000+01:00,-0.08000359736775141
2018-02-16 10:45:07.392000+01:00,-0.06670640440063122
2018-02-16 10:45:07.394000+01:00,-0.05443771547761773
2018-02-16 10:45:07.396000+01:00,-0.04592180598703785
2018-02-16 10:45:07.398000+01:00,-0.04306857881747953
2018-02-16 10:45:07.400000+01:00,-0.046506072561094645
2018-02-16 10:45:07.402000+01:00,-0.05541393626865139
2018-02-16 10:45:07.404000+01:00,-0.06770548071670157
2018-02-16 10:45:07.406000+01:00,-0.08051846719103678
2018-02-16 10:45:07.408000+01:00,-0.09089593289436798
2018-02-16 10:45:07.410000+01:00,-0.09648902570346793
2018-02-16 10:45:07.412000+01:00,-0.09610741564025309
2018-02-16 10:45:07.414000+01:00,-0.0899814476968554
2018-02-16 10:45:07.416000+01:00,-0.07967388711246892
2018-02-16 10:45:07.418000+01:00,-0.06766853349924437
2018-02-16 10:45:07.420000+01:00,-0.05674458149583233
2018-02-16 10:45:07.422000+01:00,-0.04929796996184687
2018-02-16 10:45:07.424000+01:00,-0.04678066994378658
2018-02-16 10:45:07.426000+01:00,-0.04939404277542319
2018-02-16 10:45:07.428000+01:00,-0.056103132644286534
2018-02-16 10:45:07.430000+01:00,-0.06495423986025
2018-02-16 10:45:07.432000+01:00,-0.07360120202955778
2018-02-16 10:45:07.434000+01:00,-0.07989670978957732
2018-02-16 10:45:07.436000+01:00,-0.08239580799647668
2018-02-16 10:45:07.438000+01:00,-0.08065031713009876
2018-02-16 10:45:07.440000+01:00,-0.0752349314459601
2018-02-16 10:45:07.442000+01:00,-0.06751990878300299
2018-02-16 10:45:07.444000+01:00,-0.0592706800295781
2018-02-16 10:45:07.446000+01:00,-0.05219387624452333
2018-02-16 10:45:07.448000+01:00,-0.04755288861582692
2018-02-16 10:45:07.450000+01:00,-0.045945359480747607
2018-02-16 10:45:07.452000+01:00,-0.04728092231406477
2018-02-16 10:45:07.454000+01:00,-0.05093719922947995
2018-02-16 10:45:07.456000+01:00,-0.05602355131004221
2018-02-16 10:45:07.458000+01:00,-0.061658921392050745
2018-02-16 10:45:07.460000+01:00,-0.0671775440742127
2018-02-16 10:45:07.462000+01:00,-0.07220998029457806
2018-02-16 10:45:07.464000+01:00,-0.0766346308487214
2018-02-16 10:45:07.466000+01:00,-0.08044051743298039
2018-02-16 10:45:07.468000+01:00,-0.08357087698961983
2018-02-16 10:45:07.470000+01:00,-0.08582007872289377
2018-02-16 10:45:07.472000+01:00,-0.08683324055114663
2018-02-16 10:45:07.474000+01:00,-0.08621694744452074
2018-02-16 10:45:07.476000+01:00,-0.08372477483086288
2018-02-16 10:45:07.478000+01:00,-0.07944830607270723
2018-02-16 10:45:07.480000+01:00,-0.07393470474022792
2018-02-16 10:45:07.482000+01:00,-0.06816986923444948
2018-02-16 10:45:07.484000+01:00,-0.06340696858910341
2018-02-16 10:45:07.486000+01:00,-0.06087128132033387
2018-02-16 10:45:07.488000+01:00,-0.06141745086626473
2018-02-16 10:45:07.490000+01:00,-0.06523947683452425
2018-02-16 10:45:07.492000+01:00,-0.0717279569629542
2018-02-16 10:45:07.494000+01:00,-0.0795333140879444
2018-02-16 10:45:07.496000+01:00,-0.08683737160137542
2018-02-16 10:45:07.498000+01:00,-0.09177483408103007
2018-02-16 10:45:07.500000+01:00,-0.09289912814838237
2018-02-16 10:45:07.502000+01:00,-0.08956833987187217
2018-02-16 10:45:07.504000+01:00,-0.08214332603971987
2018-02-16 10:45:07.506000+01:00,-0.07193790306227044
2018-02-16 10:45:07.508000+01:00,-0.06092735733211147
2018-02-16 10:45:07.510000+01:00,-0.051287655847611226
2018-02-16 10:45:07.512000+01:00,-0.04488464104662539
2018-02-16 10:45:07.514000+01:00,-0.04284648478357682
2018-02-16 10:45:07.516000+01:00,-0.04532950188680331
2018-02-16 10:45:07.518000+01:00,-0.05153361334468848
2018-02-16 10:45:07.520000+01:00,-0.05995474712363339
2018-02-16 10:45:07.522000+01:00,-0.06879713559759484
2018-02-16 10:45:07.524000+01:00,-0.0764272581124325
2018-02-16 10:45:07.526000+01:00,-0.0817446205684415
2018-02-16 10:45:07.528000+01:00,-0.08437393171917282
2018-02-16 10:45:07.530000+01:00,-0.08463919360773814
2018-02-16 10:45:07.532000+01:00,-0.0833456582146104
2018-02-16 10:45:07.534000+01:00,-0.08145082142509476
2018-02-16 10:45:07.536000+01:00,-0.07973426458124752
2018-02-16 10:45:07.538000+01:00,-0.07857014556719477
2018-02-16 10:45:07.540000+01:00,-0.07786809445546222
2018-02-16 10:45:07.542000+01:00,-0.07719059303656607
2018-02-16 10:45:07.544000+01:00,-0.07599604083938333
2018-02-16 10:45:07.546000+01:00,-0.07391530999242588
2018-02-16 10:45:07.548000+01:00,-0.07095883468058181
2018-02-16 10:45:07.550000+01:00,-0.06757473302387486
2018-02-16 10:45:07.552000+01:00,-0.06452880970887798
2018-02-16 10:45:07.554000+01:00,-0.06263862035506965
2018-02-16 10:45:07.556000+01:00,-0.06244642490454317
2018-02-16 10:45:07.558000+01:00,-0.06394244335162345
2018-02-16 10:45:07.560000+01:00,-0.06644085279375166
2018-02-16 10:45:07.562000+01:00,-0.06866791392732424
2018-02-16 10:45:07.564000+01:00,-0.0690567595819888
2018-02-16 10:45:07.566000+01:00,-0.0661762779998271
2018-02-16 10:45:07.568000+01:00,-0.059173164581907994
2018-02-16 10:45:07.570000+01:00,-0.04809257418199155
2018-02-16 10:45:07.572000+01:00,-0.03396976798677861
2018-02-16 10:45:07.574000+01:00,-0.018646436647718208
2018-02-16 10:45:07.576000+01:00,-0.004344049920261303
2018-02-16 10:45:07.578000+01:00,0.006900190171457862
2018-02-16 10:45:07.580000+01:00,0.013783403336046092
2018-02-16 10:45:07.582000+01:00,0.016117892365114978
2018-02-16 10:45:07.584000+01:00,0.014928432726934353
2018-02-16 10:45:07.586000+01:00,0.012226675381877482
2018-02-16 10:45:07.588000+01:00,0.010512031280039188
2018-02-16 10:45:07.590000+01:00,0.012125619803552489
2018-02-16 10:45:07.592000+01:00,0.018627365669593342
2018-02-16 10:45:07.594000+01:00,0.030363197194664023
2018-02-16 10:45:07.596000+01:00,0.046339766728874764
2018-02-16 10:45:07.598000+01:00,0.06444169357207563
2018-02-16 10:45:07.600000+01:00,0.08193395837254884
2018-02-16 10:45:07.602000+01:00,0.09611559448132227
2018-02-16 10:45:07.604000+01:00,0.10495155874614619
2018-02-16 10:45:07.606000+01:00,0.10751829745866223
2018-02-16 10:45:07.608000+01:00,0.10415212012456387
2018-02-16 10:45:07.610000+01:00,0.09627243138062552
2018-02-16 10:45:07.612000+01:00,0.08594041178006186
2018-02-16 10:45:07.614000+01:00,0.07528298971263665
2018-02-16 10:45:07.616000+01:00,0.06594300222131001
2018-02-16 10:45:07.618000+01:00,0.0587016973093192
2018-02-16 10:45:07.620000+01:00,0.05336487348850555
2018-02-16 10:45:07.622000+01:00,0.04892597648965245
2018-02-16 10:45:07.624000+01:00,0.04394147693860772
2018-02-16 10:45:07.626000+01:00,0.036998187074216
2018-02-16 10:45:07.628000+01:00,0.027133879386764388
2018-02-16 10:45:07.630000+01:00,0.014095222728173212
2018-02-16 10:45:07.632000+01:00,-0.0016279086038456204
2018-02-16 10:45:07.634000+01:00,-0.018983068540939323
2018-02-16 10:45:07.636000+01:00,-0.03667928905937282
2018-02-16 10:45:07.638000+01:00,-0.05354541886959461
2018-02-16 10:45:07.640000+01:00,-0.06881132040949195
2018-02-16 10:45:07.642000+01:00,-0.08223238468122182
2018-02-16 10:45:07.644000+01:00,-0.09403241572153886
2018-02-16 10:45:07.646000+01:00,-0.10469918198355285
2018-02-16 10:45:07.648000+01:00,-0.11471207151161654
2018-02-16 10:45:07.650000+01:00,-0.12429871837200329
2018-02-16 10:45:07.652000+01:00,-0.1333028103003651
2018-02-16 10:45:07.654000+01:00,-0.14120452638218262
2018-02-16 10:45:07.656000+01:00,-0.14728232461765783
2018-02-16 10:45:07.658000+01:00,-0.1508576634745109
2018-02-16 10:45:07.660000+01:00,-0.15153795551893434
2018-02-16 10:45:07.662000+01:00,-0.14937570109951961
2018-02-16 10:45:07.664000+01:00,-0.14489172691301352
2018-02-16 10:45:07.666000+01:00,-0.13895715481574367
2018-02-16 10:45:07.668000+01:00,-0.13257618189234005
2018-02-16 10:45:07.670000+01:00,-0.1266439158324424
2018-02-16 10:45:07.672000+01:00,-0.12175967329718698
2018-02-16 10:45:07.674000+01:00,-0.11815444249656999
2018-02-16 10:45:07.676000+01:00,-0.1157492597152626
2018-02-16 10:45:07.678000+01:00,-0.11431371903841053
2018-02-16 10:45:07.680000+01:00,-0.11365739260272313
2018-02-16 10:45:07.682000+01:00,-0.113774686644399
2018-02-16 10:45:07.684000+01:00,-0.11488055508999473
2018-02-16 10:45:07.686000+01:00,-0.11731537011888893
2018-02-16 10:45:07.688000+01:00,-0.12134834771721019
2018-02-16 10:45:07.690000+01:00,-0.12695226526439815
2018-02-16 10:45:07.692000+01:00,-0.1336416186887418
2018-02-16 10:45:07.694000+01:00,-0.14045317323946188
2018-02-16 10:45:07.696000+01:00,-0.14610425449787057
2018-02-16 10:45:07.698000+01:00,-0.14930307797646794
2018-02-16 10:45:07.700000+01:00,-0.1491269058515648
2018-02-16 10:45:07.702000+01:00,-0.14534850721398976
2018-02-16 10:45:07.704000+01:00,-0.13859367745921586
2018-02-16 10:45:07.706000+01:00,-0.13025522318557592
2018-02-16 10:45:07.708000+01:00,-0.12216122520304395
2018-02-16 10:45:07.710000+01:00,-0.11607602481662435
2018-02-16 10:45:07.712000+01:00,-0.11317505714835525
2018-02-16 10:45:07.714000+01:00,-0.11365684126693139
2018-02-16 10:45:07.716000+01:00,-0.1166259044481415
2018-02-16 10:45:07.718000+01:00,-0.12030390765245771
2018-02-16 10:45:07.720000+01:00,-0.12252330735391954
2018-02-16 10:45:07.722000+01:00,-0.12135961716403379
2018-02-16 10:45:07.724000+01:00,-0.1156972926857217
2018-02-16 10:45:07.726000+01:00,-0.10552426557683489
2018-02-16 10:45:07.728000+01:00,-0.09181786385571791
2018-02-16 10:45:07.730000+01:00,-0.07600609350938188
2018-02-16 10:45:07.732000+01:00,-0.05913050469795849
2018-02-16 10:45:07.734000+01:00,-0.04095759559321623
2018-02-16 10:45:07.736000+01:00,-0.019344527051730624
2018-02-16 10:45:07.738000+01:00,0.009863902940700445
2018-02-16 10:45:07.740000+01:00,0.05224850345486979
2018-02-16 10:45:07.742000+01:00,0.1135640227777148
2018-02-16 10:45:07.744000+01:00,0.19804946088957381
2018-02-16 10:45:07.746000+01:00,0.30669147312316924
2018-02-16 10:45:07.748000+01:00,0.4359072958568549
2018-02-16 10:45:07.750000+01:00,0.5770694014666619
2018-02-16 10:45:07.752000+01:00,0.717130373780291
2018-02-16 10:45:07.754000+01:00,0.8403563895694778
2018-02-16 10:45:07.756000+01:00,0.9309005187039845
2018-02-16 10:45:07.758000+01:00,0.97571378883178
2018-02-16 10:45:07.760000+01:00,0.9671666559446239
2018-02-16 10:45:07.762000+01:00,0.9047755875850365
2018-02-16 10:45:07.764000+01:00,0.7956018374546572
2018-02-16 10:45:07.766000+01:00,0.653176121920347
2018-02-16 10:45:07.768000+01:00,0.49513665723213734
2018-02-16 10:45:07.770000+01:00,0.3400672148671176
2018-02-16 10:45:07.772000+01:00,0.20421122187262575
2018-02-16 10:45:07.774000+01:00,0.09876838290884843
2018-02-16 10:45:07.776000+01:00,0.028342290750496785
2018-02-16 10:45:07.778000+01:00,-0.009165869970991015
2018-02-16 10:45:07.780000+01:00,-0.02126347733516558
2018-02-16 10:45:07.782000+01:00,-0.018542243487321634
2018-02-16 10:45:07.784000+01:00,-0.011919698896049302
2018-02-16 10:45:07.786000+01:00,-0.010116619946801322
2018-02-16 10:45:07.788000+01:00,-0.017947400046866634
2018-02-16 10:45:07.790000+01:00,-0.03576780210270326
2018-02-16 10:45:07.792000+01:00,-0.06011592990747439
2018-02-16 10:45:07.794000+01:00,-0.08527912618037636
2018-02-16 10:45:07.796000+01:00,-0.10529981200173079
2018-02-16 10:45:07.798000+01:00,-0.11585091707754694
2018-02-16 10:45:07.800000+01:00,-0.11548265607418567
2018-02-16 10:45:07.802000+01:00,-0.10594197706108231
2018-02-16 10:45:07.804000+01:00,-0.09153564445066484
2018-02-16 10:45:07.806000+01:00,-0.07777238518129555
2018-02-16 10:45:07.808000+01:00,-0.06970752652357293
2018-02-16 10:45:07.810000+01:00,-0.07047691877971464
2018-02-16 10:45:07.812000+01:00,-0.08043303416609096
2018-02-16 10:45:07.814000+01:00,-0.09711033275532421
2018-02-16 10:45:07.816000+01:00,-0.11600457597161917
2018-02-16 10:45:07.818000+01:00,-0.13192091999034722
2018-02-16 10:45:07.820000+01:00,-0.14049190194231986
2018-02-16 10:45:07.822000+01:00,-0.13942937919766463
2018-02-16 10:45:07.824000+01:00,-0.12916102423771655
2018-02-16 10:45:07.826000+01:00,-0.11268439055553214
2018-02-16 10:45:07.828000+01:00,-0.09469614682069588
2018-02-16 10:45:07.830000+01:00,-0.08025677319698457
2018-02-16 10:45:07.832000+01:00,-0.07337559271988127
2018-02-16 10:45:07.834000+01:00,-0.07591456653789166
2018-02-16 10:45:07.836000+01:00,-0.08711080562380619
2018-02-16 10:45:07.838000+01:00,-0.10383763924868467
2018-02-16 10:45:07.840000+01:00,-0.12151481052259715
2018-02-16 10:45:07.842000+01:00,-0.1353992669594727
2018-02-16 10:45:07.844000+01:00,-0.14188843893684483
2018-02-16 10:45:07.846000+01:00,-0.13947368085495654
2018-02-16 10:45:07.848000+01:00,-0.12908838608780257
2018-02-16 10:45:07.850000+01:00,-0.1137706700927334
2018-02-16 10:45:07.852000+01:00,-0.09775360966740104
2018-02-16 10:45:07.854000+01:00,-0.08525238946463284
2018-02-16 10:45:07.856000+01:00,-0.07929461091990625
2018-02-16 10:45:07.858000+01:00,-0.080918143372603
2018-02-16 10:45:07.860000+01:00,-0.08894910117242744
2018-02-16 10:45:07.862000+01:00,-0.10040458042046443
2018-02-16 10:45:07.864000+01:00,-0.11138921657543144
2018-02-16 10:45:07.866000+01:00,-0.11822071902205161
2018-02-16 10:45:07.868000+01:00,-0.11846350880148393
2018-02-16 10:45:07.870000+01:00,-0.11158477691915814
2018-02-16 10:45:07.872000+01:00,-0.09906112382082197
2018-02-16 10:45:07.874000+01:00,-0.08392224921962144
2018-02-16 10:45:07.876000+01:00,-0.06987534308220883
2018-02-16 10:45:07.878000+01:00,-0.06026601783272926
2018-02-16 10:45:07.880000+01:00,-0.057168923879032864
2018-02-16 10:45:07.882000+01:00,-0.060855624541934286
2018-02-16 10:45:07.884000+01:00,-0.06977433115555634
2018-02-16 10:45:07.886000+01:00,-0.08102950437948184
2018-02-16 10:45:07.888000+01:00,-0.09121118914879611
2018-02-16 10:45:07.890000+01:00,-0.09733254337670497
2018-02-16 10:45:07.892000+01:00,-0.0976131975435908
2018-02-16 10:45:07.894000+01:00,-0.09189909161724782
2018-02-16 10:45:07.896000+01:00,-0.08161873356987154
2018-02-16 10:45:07.898000+01:00,-0.06930872196553338
2018-02-16 10:45:07.900000+01:00,-0.057859753093327033
2018-02-16 10:45:07.902000+01:00,-0.04970559139919075
2018-02-16 10:45:07.904000+01:00,-0.04618347741846566
2018-02-16 10:45:07.906000+01:00,-0.04723605973431671
2018-02-16 10:45:07.908000+01:00,-0.05152118704225987
2018-02-16 10:45:07.910000+01:00,-0.056877857609599965
2018-02-16 10:45:07.912000+01:00,-0.06099820391788873
2018-02-16 10:45:07.914000+01:00,-0.06210368678532173
2018-02-16 10:45:07.916000+01:00,-0.059431513451169524
2018-02-16 10:45:07.918000+01:00,-0.05340013176232182
2018-02-16 10:45:07.920000+01:00,-0.04542048650028264
2018-02-16 10:45:07.922000+01:00,-0.03742330686596653
2018-02-16 10:45:07.924000+01:00,-0.03125218011066947
2018-02-16 10:45:07.926000+01:00,-0.028105599662441343
2018-02-16 10:45:07.928000+01:00,-0.0281904981422115
2018-02-16 10:45:07.930000+01:00,-0.03068267825116511
2018-02-16 10:45:07.932000+01:00,-0.03399676659591127
2018-02-16 10:45:07.934000+01:00,-0.03627734179140664
2018-02-16 10:45:07.936000+01:00,-0.035959964679265814
2018-02-16 10:45:07.938000+01:00,-0.03223346935538727
2018-02-16 10:45:07.940000+01:00,-0.02526708790014479
2018-02-16 10:45:07.942000+01:00,-0.016137506098045942
2018-02-16 10:45:07.944000+01:00,-0.006480451594137108
2018-02-16 10:45:07.946000+01:00,0.0020272085562852505
2018-02-16 10:45:07.948000+01:00,0.008199011252897239
2018-02-16 10:45:07.950000+01:00,0.011723933433937772
2018-02-16 10:45:07.952000+01:00,0.013287009167362881
2018-02-16 10:45:07.954000+01:00,0.01438413981841622
2018-02-16 10:45:07.956000+01:00,0.016878674124453496
2018-02-16 10:45:07.958000+01:00,0.02242351000175843
2018-02-16 10:45:07.960000+01:00,0.031914294553551346
2018-02-16 10:45:07.962000+01:00,0.04513482397214597
2018-02-16 10:45:07.964000+01:00,0.060705858905645636
2018-02-16 10:45:07.966000+01:00,0.07636668334859864
2018-02-16 10:45:07.968000+01:00,0.08952703842580977
2018-02-16 10:45:07.970000+01:00,0.09795047477983934
2018-02-16 10:45:07.972000+01:00,0.10038963037339109
2018-02-16 10:45:07.974000+01:00,0.09700078928460902
2018-02-16 10:45:07.976000+01:00,0.0894180454091185
2018-02-16 10:45:07.978000+01:00,0.08045304238188818
2018-02-16 10:45:07.980000+01:00,0.07348249197877613
2018-02-16 10:45:07.982000+01:00,0.0716675291108055
2018-02-16 10:45:07.984000+01:00,0.0771951666300762
2018-02-16 10:45:07.986000+01:00,0.09073050910873692
2018-02-16 10:45:07.988000+01:00,0.11121901763218654
2018-02-16 10:45:07.990000+01:00,0.13609321595957824
2018-02-16 10:45:07.992000+01:00,0.161839020413488
2018-02-16 10:45:07.994000+01:00,0.18478817935614913
2018-02-16 10:45:07.996000+01:00,0.20194728056473749
2018-02-16 10:45:07.998000+01:00,0.21166437538341282
2018-02-16 10:45:08+01:00,0.2139737872271332
2018-02-16 10:45:08.002000+01:00,0.2105382680750304
2018-02-16 10:45:08.004000+01:00,0.20420584124846208
2018-02-16 10:45:08.006000+01:00,0.19829216716649434
2018-02-16 10:45:08.008000+01:00,0.19576509747772625
2018-02-16 10:45:08.010000+01:00,0.19853019285074566
2018-02-16 10:45:08.012000+01:00,0.20698916648645455
2018-02-16 10:45:08.014000+01:00,0.21997437289154625
2018-02-16 10:45:08.016000+01:00,0.23506883176494325
2018-02-16 10:45:08.018000+01:00,0.2492261290255114
2018-02-16 10:45:08.020000+01:00,0.25953143417565383
2018-02-16 10:45:08.022000+01:00,0.26391182228758925
2018-02-16 10:45:08.024000+01:00,0.2616191026134522
2018-02-16 10:45:08.026000+01:00,0.2533674764169991
2018-02-16 10:45:08.028000+01:00,0.24109661881695155
2018-02-16 10:45:08.030000+01:00,0.2274259809309171
2018-02-16 10:45:08.032000+01:00,0.2149442636093425
2018-02-16 10:45:08.034000+01:00,0.20551941318241512
2018-02-16 10:45:08.036000+01:00,0.19980861567865643
2018-02-16 10:45:08.038000+01:00,0.19709600988256484
2018-02-16 10:45:08.040000+01:00,0.19550122991485272
2018-02-16 10:45:08.042000+01:00,0.19250582112737583
2018-02-16 10:45:08.044000+01:00,0.1856615339668129
2018-02-16 10:45:08.046000+01:00,0.17329582881358613
2018-02-16 10:45:08.048000+01:00,0.15502837137999836
2018-02-16 10:45:08.050000+01:00,0.1319587394008473
2018-02-16 10:45:08.052000+01:00,0.10646858438452572
2018-02-16 10:45:08.054000+01:00,0.08168024956446715
2018-02-16 10:45:08.056000+01:00,0.06070323812332996
2018-02-16 10:45:08.058000+01:00,0.04585696634587871
2018-02-16 10:45:08.060000+01:00,0.03806798559437401
2018-02-16 10:45:08.062000+01:00,0.03659924520193696
2018-02-16 10:45:08.064000+01:00,0.03918776159595628
2018-02-16 10:45:08.066000+01:00,0.04256544923157902
2018-02-16 10:45:08.068000+01:00,0.043241379681081514
2018-02-16 10:45:08.070000+01:00,0.038356780969551925
2018-02-16 10:45:08.072000+01:00,0.026403716716287846
2018-02-16 10:45:08.074000+01:00,0.0076299576007912194
2018-02-16 10:45:08.076000+01:00,-0.015971681399659318
2018-02-16 10:45:08.078000+01:00,-0.04109021234851762
2018-02-16 10:45:08.080000+01:00,-0.06383906199381281
2018-02-16 10:45:08.082000+01:00,-0.08063771667989601
2018-02-16 10:45:08.084000+01:00,-0.0890232721885301
2018-02-16 10:45:08.086000+01:00,-0.08820147494033431
2018-02-16 10:45:08.088000+01:00,-0.0792115200356592
2018-02-16 10:45:08.090000+01:00,-0.06467286324832835
2018-02-16 10:45:08.092000+01:00,-0.048181977054310036
2018-02-16 10:45:08.094000+01:00,-0.0335078541742257
2018-02-16 10:45:08.096000+01:00,-0.02377795966224618
2018-02-16 10:45:08.098000+01:00,-0.020841960631195564
2018-02-16 10:45:08.100000+01:00,-0.024951636705179907
2018-02-16 10:45:08.102000+01:00,-0.034815479722332315
2018-02-16 10:45:08.104000+01:00,-0.047996232846011726
2018-02-16 10:45:08.106000+01:00,-0.061541286051694385
2018-02-16 10:45:08.108000+01:00,-0.07268769368357378
2018-02-16 10:45:08.110000+01:00,-0.07947551830558212
2018-02-16 10:45:08.112000+01:00,-0.08113483781484276
2018-02-16 10:45:08.114000+01:00,-0.07817299233983707
2018-02-16 10:45:08.116000+01:00,-0.07216290108043238
2018-02-16 10:45:08.118000+01:00,-0.06530199280680558
2018-02-16 10:45:08.120000+01:00,-0.05985862034665528
2018-02-16 10:45:08.122000+01:00,-0.057639383635283446
2018-02-16 10:45:08.124000+01:00,-0.059595353743372645
2018-02-16 10:45:08.126000+01:00,-0.06564429009580805
2018-02-16 10:45:08.128000+01:00,-0.0747314953998121
2018-02-16 10:45:08.130000+01:00,-0.08509777252745272
2018-02-16 10:45:08.132000+01:00,-0.094681232354399
2018-02-16 10:45:08.134000+01:00,-0.10155827517468954
2018-02-16 10:45:08.136000+01:00,-0.10433010154812014
2018-02-16 10:45:08.138000+01:00,-0.10238142323353304
2018-02-16 10:45:08.140000+01:00,-0.09597069317594187
2018-02-16 10:45:08.142000+01:00,-0.08614772933766945
2018-02-16 10:45:08.144000+01:00,-0.07452729759152522
2018-02-16 10:45:08.146000+01:00,-0.06297056194469948
2018-02-16 10:45:08.148000+01:00,-0.05323776886558669
2018-02-16 10:45:08.150000+01:00,-0.04667520439072123
2018-02-16 10:45:08.152000+01:00,-0.04398931891264557
2018-02-16 10:45:08.154000+01:00,-0.045143785462555285
2018-02-16 10:45:08.156000+01:00,-0.04939405791131815
2018-02-16 10:45:08.158000+01:00,-0.05545139803559191
2018-02-16 10:45:08.160000+01:00,-0.061746876160256134
2018-02-16 10:45:08.162000+01:00,-0.06674811291170664
2018-02-16 10:45:08.164000+01:00,-0.06927025320464006
2018-02-16 10:45:08.166000+01:00,-0.06872053413682117
2018-02-16 10:45:08.168000+01:00,-0.06522468019294156
2018-02-16 10:45:08.170000+01:00,-0.0596034166653213
2018-02-16 10:45:08.172000+01:00,-0.05319640053181234
2018-02-16 10:45:08.174000+01:00,-0.04756382558788529
2018-02-16 10:45:08.176000+01:00,-0.044125866734382825
2018-02-16 10:45:08.178000+01:00,-0.04381936452180236
2018-02-16 10:45:08.180000+01:00,-0.04685346470457774
2018-02-16 10:45:08.182000+01:00,-0.052628602715305374
2018-02-16 10:45:08.184000+01:00,-0.05984831166840903
2018-02-16 10:45:08.186000+01:00,-0.06680788998079702
2018-02-16 10:45:08.188000+01:00,-0.07179875015733196
2018-02-16 10:45:08.190000+01:00,-0.07353411020626394
2018-02-16 10:45:08.192000+01:00,-0.07149038259817687
2018-02-16 10:45:08.194000+01:00,-0.0660738793708512
2018-02-16 10:45:08.196000+01:00,-0.058562151724237385
2018-02-16 10:45:08.198000+01:00,-0.05082450172055624
2018-02-16 10:45:08.200000+01:00,-0.04488312488393678
2018-02-16 10:45:08.202000+01:00,-0.04241985008754381
2018-02-16 10:45:08.204000+01:00,-0.044351245612631505
2018-02-16 10:45:08.206000+01:00,-0.05058106426366587
2018-02-16 10:45:08.208000+01:00,-0.05999614575017934
2018-02-16 10:45:08.210000+01:00,-0.07071056309029751
2018-02-16 10:45:08.212000+01:00,-0.08049901913830006
2018-02-16 10:45:08.214000+01:00,-0.08731144591388432
2018-02-16 10:45:08.216000+01:00,-0.08973991341205244
2018-02-16 10:45:08.218000+01:00,-0.08732226751167461
2018-02-16 10:45:08.220000+01:00,-0.08061092922656254
2018-02-16 10:45:08.222000+01:00,-0.07099793548636665
2018-02-16 10:45:08.224000+01:00,-0.060351271605210886
2018-02-16 10:45:08.226000+01:00,-0.05056509337810122
2018-02-16 10:45:08.228000+01:00,-0.043144505647093295
2018-02-16 10:45:08.230000+01:00,-0.03892961874579468
2018-02-16 10:45:08.232000+01:00,-0.038018904526202026
2018-02-16 10:45:08.234000+01:00,-0.03989198297323499
2018-02-16 10:45:08.236000+01:00,-0.043674785380506634
2018-02-16 10:45:08.238000+01:00,-0.048452433907475494
2018-02-16 10:45:08.240000+01:00,-0.05352796625341828
2018-02-16 10:45:08.242000+01:00,-0.05854973635741773
2018-02-16 10:45:08.244000+01:00,-0.0634786370320975
2018-02-16 10:45:08.246000+01:00,-0.06842260241225202
2018-02-16 10:45:08.248000+01:00,-0.07341204837024576
2018-02-16 10:45:08.250000+01:00,-0.0782109518661856
2018-02-16 10:45:08.252000+01:00,-0.08224693814402069
2018-02-16 10:45:08.254000+01:00,-0.08470309380876156
2018-02-16 10:45:08.256000+01:00,-0.08475682077585897
2018-02-16 10:45:08.258000+01:00,-0.08189529058190034
2018-02-16 10:45:08.260000+01:00,-0.07620152708627073
2018-02-16 10:45:08.262000+01:00,-0.06850273550781878
2018-02-16 10:45:08.264000+01:00,-0.060306138058435876
2018-02-16 10:45:08.266000+01:00,-0.05350885551945669
2018-02-16 10:45:08.268000+01:00,-0.049939689524952396
2018-02-16 10:45:08.270000+01:00,-0.05085022477533833
2018-02-16 10:45:08.272000+01:00,-0.05650105591220505
2018-02-16 10:45:08.274000+01:00,-0.06597520313624992
2018-02-16 10:45:08.276000+01:00,-0.07729614626804665
2018-02-16 10:45:08.278000+01:00,-0.08784605063569528
2018-02-16 10:45:08.280000+01:00,-0.09499327046313204
2018-02-16 10:45:08.282000+01:00,-0.09677223330463841
2018-02-16 10:45:08.284000+01:00,-0.09243369920001107
2018-02-16 10:45:08.286000+01:00,-0.0827085187869292
2018-02-16 10:45:08.288000+01:00,-0.0696985790058719
2018-02-16 10:45:08.290000+01:00,-0.056406529743728555
2018-02-16 10:45:08.292000+01:00,-0.046014512218262915
2018-02-16 10:45:08.294000+01:00,-0.04109376957720945
2018-02-16 10:45:08.296000+01:00,-0.042950883190209524
2018-02-16 10:45:08.298000+01:00,-0.05128457016311797
2018-02-16 10:45:08.300000+01:00,-0.06424715279623466
2018-02-16 10:45:08.302000+01:00,-0.07889825979621402
2018-02-16 10:45:08.304000+01:00,-0.09193409269981656
2018-02-16 10:45:08.306000+01:00,-0.10050240823776176
2018-02-16 10:45:08.308000+01:00,-0.10289147796397513
2018-02-16 10:45:08.310000+01:00,-0.09891667486198687
2018-02-16 10:45:08.312000+01:00,-0.08991101220834487
2018-02-16 10:45:08.314000+01:00,-0.07833278402713267
2018-02-16 10:45:08.316000+01:00,-0.067104736130771
2018-02-16 10:45:08.318000+01:00,-0.058867110100230276
2018-02-16 10:45:08.320000+01:00,-0.055343363719505954
2018-02-16 10:45:08.322000+01:00,-0.05697907734274707
2018-02-16 10:45:08.324000+01:00,-0.0629336704749986
2018-02-16 10:45:08.326000+01:00,-0.07140497199241741
2018-02-16 10:45:08.328000+01:00,-0.08017701009374235
2018-02-16 10:45:08.330000+01:00,-0.08722656015462409
2018-02-16 10:45:08.332000+01:00,-0.0912181755890473
2018-02-16 10:45:08.334000+01:00,-0.0917602107089785
2018-02-16 10:45:08.336000+01:00,-0.08937123110475685
2018-02-16 10:45:08.338000+01:00,-0.08519323262547991
2018-02-16 10:45:08.340000+01:00,-0.08055919915424059
2018-02-16 10:45:08.342000+01:00,-0.07655739205706835
2018-02-16 10:45:08.344000+01:00,-0.07372464962937617
2018-02-16 10:45:08.346000+01:00,-0.07195109695789856
2018-02-16 10:45:08.348000+01:00,-0.07060620149501368
2018-02-16 10:45:08.350000+01:00,-0.06882460250439001
2018-02-16 10:45:08.352000+01:00,-0.0658421001779747
2018-02-16 10:45:08.354000+01:00,-0.06126208980707121
2018-02-16 10:45:08.356000+01:00,-0.055162649908714674
2018-02-16 10:45:08.358000+01:00,-0.04801363170624804
2018-02-16 10:45:08.360000+01:00,-0.04044137029317913
2018-02-16 10:45:08.362000+01:00,-0.03293317825626097
2018-02-16 10:45:08.364000+01:00,-0.02559627529222062
2018-02-16 10:45:08.366000+01:00,-0.018068447979973635
2018-02-16 10:45:08.368000+01:00,-0.009625781417725153
2018-02-16 10:45:08.370000+01:00,0.000536931458902144
2018-02-16 10:45:08.372000+01:00,0.01294194814812997
2018-02-16 10:45:08.374000+01:00,0.027506545991078168
2018-02-16 10:45:08.376000+01:00,0.04338542709602483
2018-02-16 10:45:08.378000+01:00,0.05905414664635105
2018-02-16 10:45:08.380000+01:00,0.07263549964700172
2018-02-16 10:45:08.382000+01:00,0.08238991648343894
2018-02-16 10:45:08.384000+01:00,0.08722969065215405
2018-02-16 10:45:08.386000+01:00,0.08709618251539997
2018-02-16 10:45:08.388000+01:00,0.08306811415943839
2018-02-16 10:45:08.390000+01:00,0.07714160823520808
2018-02-16 10:45:08.392000+01:00,0.07171875510869424
2018-02-16 10:45:08.394000+01:00,0.06893293818377345
2018-02-16 10:45:08.396000+01:00,0.06999765181298345
2018-02-16 10:45:08.398000+01:00,0.07477155761445803
2018-02-16 10:45:08.400000+01:00,0.08168146864864763
2018-02-16 10:45:08.402000+01:00,0.08804921407073897
2018-02-16 10:45:08.404000+01:00,0.09075417779010544
2018-02-16 10:45:08.406000+01:00,0.0870634983099022
2018-02-16 10:45:08.408000+01:00,0.07540623075625583
2018-02-16 10:45:08.410000+01:00,0.05587404464993643
2018-02-16 10:45:08.412000+01:00,0.030299569081054502
2018-02-16 10:45:08.414000+01:00,0.0018765001030932441
2018-02-16 10:45:08.416000+01:00,-0.025588110408857844
2018-02-16 10:45:08.418000+01:00,-0.04859509856787198
2018-02-16 10:45:08.420000+01:00,-0.06480226952622556
2018-02-16 10:45:08.422000+01:00,-0.07357218016498888
2018-02-16 10:45:08.424000+01:00,-0.07607027406120381
2018-02-16 10:45:08.426000+01:00,-0.07488787472252553
2018-02-16 10:45:08.428000+01:00,-0.0732951015401111
2018-02-16 10:45:08.430000+01:00,-0.07433020939477764
2018-02-16 10:45:08.432000+01:00,-0.07997550902951495
2018-02-16 10:45:08.434000+01:00,-0.09064364553090846
2018-02-16 10:45:08.436000+01:00,-0.1051092920875303
2018-02-16 10:45:08.438000+01:00,-0.12089573824895421
2018-02-16 10:45:08.440000+01:00,-0.13499924421019718
2018-02-16 10:45:08.442000+01:00,-0.14474224818372824
2018-02-16 10:45:08.444000+01:00,-0.14851511388758995
2018-02-16 10:45:08.446000+01:00,-0.1462030411587893
2018-02-16 10:45:08.448000+01:00,-0.13918830575449417
2018-02-16 10:45:08.450000+01:00,-0.1299403228100145
2018-02-16 10:45:08.452000+01:00,-0.12132152856453947
2018-02-16 10:45:08.454000+01:00,-0.11581282883703505
2018-02-16 10:45:08.456000+01:00,-0.11487764463430682
2018-02-16 10:45:08.458000+01:00,-0.11863572555806105
2018-02-16 10:45:08.460000+01:00,-0.1259227022372177
2018-02-16 10:45:08.462000+01:00,-0.13469803212826437
2018-02-16 10:45:08.464000+01:00,-0.1426662865770475
2018-02-16 10:45:08.466000+01:00,-0.1479227262630007
2018-02-16 10:45:08.468000+01:00,-0.14943807101945739
2018-02-16 10:45:08.470000+01:00,-0.1472557561504878
2018-02-16 10:45:08.472000+01:00,-0.14236795504674982
2018-02-16 10:45:08.474000+01:00,-0.1363345990483319
2018-02-16 10:45:08.476000+01:00,-0.13078237546190874
2018-02-16 10:45:08.478000+01:00,-0.12694684171910947
2018-02-16 10:45:08.480000+01:00,-0.12539421031696169
2018-02-16 10:45:08.482000+01:00,-0.12599073098912913
2018-02-16 10:45:08.484000+01:00,-0.1281007412850059
2018-02-16 10:45:08.486000+01:00,-0.13091851014554937
2018-02-16 10:45:08.488000+01:00,-0.13379895640497902
2018-02-16 10:45:08.490000+01:00,-0.13646092269730442
2018-02-16 10:45:08.492000+01:00,-0.1389902538387161
2018-02-16 10:45:08.494000+01:00,-0.14164949379834235
2018-02-16 10:45:08.496000+01:00,-0.14457847796937592
2018-02-16 10:45:08.498000+01:00,-0.14751748732981773
2018-02-16 10:45:08.500000+01:00,-0.14968353419869956
2018-02-16 10:45:08.502000+01:00,-0.14987854387731392
2018-02-16 10:45:08.504000+01:00,-0.14682110881611582
2018-02-16 10:45:08.506000+01:00,-0.13959994572801548
2018-02-16 10:45:08.508000+01:00,-0.12808050983362046
2018-02-16 10:45:08.510000+01:00,-0.11308335166194855
2018-02-16 10:45:08.512000+01:00,-0.09620482095811206
2018-02-16 10:45:08.514000+01:00,-0.07925787300665929
2018-02-16 10:45:08.516000+01:00,-0.06344384919939113
2018-02-16 10:45:08.518000+01:00,-0.04848424709480741
2018-02-16 10:45:08.520000+01:00,-0.03200394000565129
2018-02-16 10:45:08.522000+01:00,-0.009436396932267476
2018-02-16 10:45:08.524000+01:00,0.02538763935695735
2018-02-16 10:45:08.526000+01:00,0.07898222551134733
2018-02-16 10:45:08.528000+01:00,0.15649157109748252
2018-02-16 10:45:08.530000+01:00,0.2598970063969857
2018-02-16 10:45:08.532000+01:00,0.3866059659546672
2018-02-16 10:45:08.534000+01:00,0.5288495477150129
2018-02-16 10:45:08.536000+01:00,0.6741629822555629
2018-02-16 10:45:08.538000+01:00,0.8069828368479245
2018-02-16 10:45:08.540000+01:00,0.911122467129609
2018-02-16 10:45:08.542000+01:00,0.9726521302977154
2018-02-16 10:45:08.544000+01:00,0.9825757681244058
2018-02-16 10:45:08.546000+01:00,0.9387032876739938
2018-02-16 10:45:08.548000+01:00,0.8462708972514893
2018-02-16 10:45:08.550000+01:00,0.7171305711578475
2018-02-16 10:45:08.552000+01:00,0.5676502279772442
2018-02-16 10:45:08.554000+01:00,0.41576077389914223
2018-02-16 10:45:08.556000+01:00,0.27778163192523986
2018-02-16 10:45:08.558000+01:00,0.16570347267834487
2018-02-16 10:45:08.560000+01:00,0.08549325114285962
2018-02-16 10:45:08.562000+01:00,0.03674044760768283
2018-02-16 10:45:08.564000+01:00,0.013646092942478847
2018-02-16 10:45:08.566000+01:00,0.007046721283679215
2018-02-16 10:45:08.568000+01:00,0.006939899087193493
2018-02-16 10:45:08.570000+01:00,0.004890054505231498
2018-02-16 10:45:08.572000+01:00,-0.004239378608132248
2018-02-16 10:45:08.574000+01:00,-0.0215812531219808
2018-02-16 10:45:08.576000+01:00,-0.04466352572679184
2018-02-16 10:45:08.578000+01:00,-0.06870620206857898
2018-02-16 10:45:08.580000+01:00,-0.08839772947125502
2018-02-16 10:45:08.582000+01:00,-0.09963874311497094
2018-02-16 10:45:08.584000+01:00,-0.10078596173097466
2018-02-16 10:45:08.586000+01:00,-0.09309367157808558
2018-02-16 10:45:08.588000+01:00,-0.08028538961930357
2018-02-16 10:45:08.590000+01:00,-0.06742814424753862
2018-02-16 10:45:08.592000+01:00,-0.05946218713998061
2018-02-16 10:45:08.594000+01:00,-0.059814462792489496
2018-02-16 10:45:08.596000+01:00,-0.06947951939914584
2018-02-16 10:45:08.598000+01:00,-0.08680456104061235
2018-02-16 10:45:08.600000+01:00,-0.1080107060884573
2018-02-16 10:45:08.602000+01:00,-0.12827855424654686
2018-02-16 10:45:08.604000+01:00,-0.1430784856412456
2018-02-16 10:45:08.606000+01:00,-0.14937251580298053
2018-02-16 10:45:08.608000+01:00,-0.1463654877146971
2018-02-16 10:45:08.610000+01:00,-0.13562032003589727
2018-02-16 10:45:08.612000+01:00,-0.12053365512730949
2018-02-16 10:45:08.614000+01:00,-0.10534286794697852
2018-02-16 10:45:08.616000+01:00,-0.09395549625752377
2018-02-16 10:45:08.618000+01:00,-0.0889273135633852
2018-02-16 10:45:08.620000+01:00,-0.09085971190595052
2018-02-16 10:45:08.622000+01:00,-0.09836016976521869
2018-02-16 10:45:08.624000+01:00,-0.10854940348019154
2018-02-16 10:45:08.626000+01:00,-0.11795067284754364
2018-02-16 10:45:08.628000+01:00,-0.12350053282595133
2018-02-16 10:45:08.630000+01:00,-0.12339980618979327
2018-02-16 10:45:08.632000+01:00,-0.1175804803595504
2018-02-16 10:45:08.634000+01:00,-0.10767914082784447
2018-02-16 10:45:08.636000+01:00,-0.09654614551325935
2018-02-16 10:45:08.638000+01:00,-0.08744311259851337
2018-02-16 10:45:08.640000+01:00,-0.08315686618461117
2018-02-16 10:45:08.642000+01:00,-0.08526809340304577
2018-02-16 10:45:08.644000+01:00,-0.09375882939027365
2018-02-16 10:45:08.646000+01:00,-0.10704309160156582
2018-02-16 10:45:08.648000+01:00,-0.12238932590291891
2018-02-16 10:45:08.650000+01:00,-0.13660388795908826
2018-02-16 10:45:08.652000+01:00,-0.1467869435272466
2018-02-16 10:45:08.654000+01:00,-0.1509681693747743
2018-02-16 10:45:08.656000+01:00,-0.14847617731197127
2018-02-16 10:45:08.658000+01:00,-0.13997593176549852
2018-02-16 10:45:08.660000+01:00,-0.12719816047151292
2018-02-16 10:45:08.662000+01:00,-0.11245911749880327
2018-02-16 10:45:08.664000+01:00,-0.09810986412325721
2018-02-16 10:45:08.666000+01:00,-0.08605432035336229
2018-02-16 10:45:08.668000+01:00,-0.07743943755555562
2018-02-16 10:45:08.670000+01:00,-0.07256306346096945
2018-02-16 10:45:08.672000+01:00,-0.07098389901664573
2018-02-16 10:45:08.674000+01:00,-0.07177045650500444
2018-02-16 10:45:08.676000+01:00,-0.07380306314208299
2018-02-16 10:45:08.678000+01:00,-0.07604707143282127
2018-02-16 10:45:08.680000+01:00,-0.07774071575539374
2018-02-16 10:45:08.682000+01:00,-0.07847631942305033
2018-02-16 10:45:08.684000+01:00,-0.07818643757644883
2018-02-16 10:45:08.686000+01:00,-0.07706751940723494
2018-02-16 10:45:08.688000+01:00,-0.07547881326965258
2018-02-16 10:45:08.690000+01:00,-0.07384562509121895
2018-02-16 10:45:08.692000+01:00,-0.0725802860794379
2018-02-16 10:45:08.694000+01:00,-0.07201945780310447
2018-02-16 10:45:08.696000+01:00,-0.07236917912904584
2018-02-16 10:45:08.698000+01:00,-0.07365174401504099
2018-02-16 10:45:08.700000+01:00,-0.07565874337130861
2018-02-16 10:45:08.702000+01:00,-0.07792645094371081
2018-02-16 10:45:08.704000+01:00,-0.07975615371189218
2018-02-16 10:45:08.706000+01:00,-0.08029788584977585
2018-02-16 10:45:08.708000+01:00,-0.07870036760056501
2018-02-16 10:45:08.710000+01:00,-0.07430677821870997
2018-02-16 10:45:08.712000+01:00,-0.06685314348595123
2018-02-16 10:45:08.714000+01:00,-0.05661266524408068
2018-02-16 10:45:08.716000+01:00,-0.04443229452801723
2018-02-16 10:45:08.718000+01:00,-0.03162935725897329
2018-02-16 10:45:08.720000+01:00,-0.01975198130079855
2018-02-16 10:45:08.722000+01:00,-0.010247862584820243
2018-02-16 10:45:08.724000+01:00,-0.00411909013784995
2018-02-16 10:45:08.726000+01:00,-0.0016548834719129263
2018-02-16 10:45:08.728000+01:00,-0.0023225575954898443
2018-02-16 10:45:08.730000+01:00,-0.0048605740618912685
2018-02-16 10:45:08.732000+01:00,-0.007564711072036867
2018-02-16 10:45:08.734000+01:00,-0.0087034757160321
2018-02-16 10:45:08.736000+01:00,-0.006957945615992711
2018-02-16 10:45:08.738000+01:00,-0.0017673378077918453
2018-02-16 10:45:08.740000+01:00,0.006519323667000109
2018-02-16 10:45:08.742000+01:00,0.01673645499592691
2018-02-16 10:45:08.744000+01:00,0.027225197150769622
2018-02-16 10:45:08.746000+01:00,0.036306678548982944
2018-02-16 10:45:08.748000+01:00,0.042779392805947454
2018-02-16 10:45:08.750000+01:00,0.0463023556203204
2018-02-16 10:45:08.752000+01:00,0.04755154447040257
2018-02-16 10:45:08.754000+01:00,0.04809550142346206
2018-02-16 10:45:08.756000+01:00,0.05001167962132778
2018-02-16 10:45:08.758000+01:00,0.05533748914473155
2018-02-16 10:45:08.760000+01:00,0.06549874885751905
2018-02-16 10:45:08.762000+01:00,0.08086919387945117
2018-02-16 10:45:08.764000+01:00,0.10058387881469061
2018-02-16 10:45:08.766000+01:00,0.12266440889056704
2018-02-16 10:45:08.768000+01:00,0.14443216958719726
2018-02-16 10:45:08.770000+01:00,0.16310924803491372
2018-02-16 10:45:08.772000+01:00,0.1764564346093021
2018-02-16 10:45:08.774000+01:00,0.1832873480493763
2018-02-16 10:45:08.776000+01:00,0.18373015913581858
2018-02-16 10:45:08.778000+01:00,0.17917464935042027
2018-02-16 10:45:08.780000+01:00,0.1719242524729354
2018-02-16 10:45:08.782000+01:00,0.16464796099025178
2018-02-16 10:45:08.784000+01:00,0.159775328803834
2018-02-16 10:45:08.786000+01:00,0.15898677299398914
2018-02-16 10:45:08.788000+01:00,0.16291956061685475
2018-02-16 10:45:08.790000+01:00,0.17114715070934008
2018-02-16 10:45:08.792000+01:00,0.18241416256889978
2018-02-16 10:45:08.794000+01:00,0.1950424225140087
2018-02-16 10:45:08.796000+01:00,0.2073835065439435
2018-02-16 10:45:08.798000+01:00,0.21819007687423836
2018-02-16 10:45:08.800000+01:00,0.22681144580705614
2018-02-16 10:45:08.802000+01:00,0.23317718455294525
2018-02-16 10:45:08.804000+01:00,0.23759833958919635
2018-02-16 10:45:08.806000+01:00,0.24046941464793936
2018-02-16 10:45:08.808000+01:00,0.24198036529547734
2018-02-16 10:45:08.810000+01:00,0.24193954064026624
2018-02-16 10:45:08.812000+01:00,0.23976918391536936
2018-02-16 10:45:08.814000+01:00,0.2346773589877214
2018-02-16 10:45:08.816000+01:00,0.22595180824751454
2018-02-16 10:45:08.818000+01:00,0.21328001355397963
2018-02-16 10:45:08.820000+01:00,0.1969881055419382
2018-02-16 10:45:08.822000+01:00,0.17811278024068605
2018-02-16 10:45:08.824000+01:00,0.15826868750805817
2018-02-16 10:45:08.826000+01:00,0.1393345497001921
2018-02-16 10:45:08.828000+01:00,0.12303654984914411
2018-02-16 10:45:08.830000+01:00,0.11054088406926901
2018-02-16 10:45:08.832000+01:00,0.10216878380660595
2018-02-16 10:45:08.834000+01:00,0.09731604247564347
2018-02-16 10:45:08.836000+01:00,0.09460388367169224
2018-02-16 10:45:08.838000+01:00,0.09222457005434076
2018-02-16 10:45:08.840000+01:00,0.08839149629135681
2018-02-16 10:45:08.842000+01:00,0.08177487987768262
2018-02-16 10:45:08.844000+01:00,0.07180862170951648
2018-02-16 10:45:08.846000+01:00,0.05879006135378672
2018-02-16 10:45:08.848000+01:00,0.04375186709464027
2018-02-16 10:45:08.850000+01:00,0.028147865142220046
2018-02-16 10:45:08.852000+01:00,0.013444649765144466
2018-02-16 10:45:08.854000+01:00,0.0007344685353845387
2018-02-16 10:45:08.856000+01:00,-0.009524125287285886
2018-02-16 10:45:08.858000+01:00,-0.017569988409380993
2018-02-16 10:45:08.860000+01:00,-0.02419654799433727
2018-02-16 10:45:08.862000+01:00,-0.030450427343821848
2018-02-16 10:45:08.864000+01:00,-0.03726385049364974
2018-02-16 10:45:08.866000+01:00,-0.04513052215015046
2018-02-16 10:45:08.868000+01:00,-0.053920639948206
2018-02-16 10:45:08.870000+01:00,-0.06288961845020968
2018-02-16 10:45:08.872000+01:00,-0.07087891776477777
2018-02-16 10:45:08.874000+01:00,-0.07665209199441322
2018-02-16 10:45:08.876000+01:00,-0.07927032751174465
2018-02-16 10:45:08.878000+01:00,-0.07840003830758056
2018-02-16 10:45:08.880000+01:00,-0.07446355920841422
2018-02-16 10:45:08.882000+01:00,-0.06858721264899263
2018-02-16 10:45:08.884000+01:00,-0.062356815634384354
2018-02-16 10:45:08.886000+01:00,-0.057443556740872745
2018-02-16 10:45:08.888000+01:00,-0.05519865307203706
2018-02-16 10:45:08.890000+01:00,-0.05632381655957036
2018-02-16 10:45:08.892000+01:00,-0.060704289619038614
2018-02-16 10:45:08.894000+01:00,-0.06744792505603135
2018-02-16 10:45:08.896000+01:00,-0.07511941758755028
2018-02-16 10:45:08.898000+01:00,-0.08210798330846465
2018-02-16 10:45:08.900000+01:00,-0.08703294366265243
2018-02-16 10:45:08.902000+01:00,-0.08908333062149087
2018-02-16 10:45:08.904000+01:00,-0.08820637636466337
2018-02-16 10:45:08.906000+01:00,-0.08510001981963115
2018-02-16 10:45:08.908000+01:00,-0.08101532382723123
2018-02-16 10:45:08.910000+01:00,-0.07742258957549827
2018-02-16 10:45:08.912000+01:00,-0.07562781500846494
2018-02-16 10:45:08.914000+01:00,-0.07643618662012666
2018-02-16 10:45:08.916000+01:00,-0.07994486884798697
2018-02-16 10:45:08.918000+01:00,-0.0855130825713428
2018-02-16 10:45:08.920000+01:00,-0.09191278307021158
2018-02-16 10:45:08.922000+01:00,-0.09761966008602149
2018-02-16 10:45:08.924000+01:00,-0.10117229409826523
2018-02-16 10:45:08.926000+01:00,-0.10151417753639977
2018-02-16 10:45:08.928000+01:00,-0.09824094026805577
2018-02-16 10:45:08.930000+01:00,-0.09170033804508573
2018-02-16 10:45:08.932000+01:00,-0.08292818676557542
2018-02-16 10:45:08.934000+01:00,-0.07344041083204775
2018-02-16 10:45:08.936000+01:00,-0.0649311469937427
2018-02-16 10:45:08.938000+01:00,-0.05894334177613473
2018-02-16 10:45:08.940000+01:00,-0.056579152222759756
2018-02-16 10:45:08.942000+01:00,-0.05830417764492261
2018-02-16 10:45:08.944000+01:00,-0.06387660089949282
2018-02-16 10:45:08.946000+01:00,-0.07240571513086216
2018-02-16 10:45:08.948000+01:00,-0.08251999492251728
2018-02-16 10:45:08.950000+01:00,-0.09260733173799908
2018-02-16 10:45:08.952000+01:00,-0.10108157164951735
2018-02-16 10:45:08.954000+01:00,-0.10663007494230081
2018-02-16 10:45:08.956000+01:00,-0.10840488559066402
2018-02-16 10:45:08.958000+01:00,-0.10613254367268968
2018-02-16 10:45:08.960000+01:00,-0.10013179463172957
2018-02-16 10:45:08.962000+01:00,-0.09124219768364084
2018-02-16 10:45:08.964000+01:00,-0.08067845197849846
2018-02-16 10:45:08.966000+01:00,-0.06983437016135913
2018-02-16 10:45:08.968000+01:00,-0.06006645268861845
2018-02-16 10:45:08.970000+01:00,-0.052489622267568044
2018-02-16 10:45:08.972000+01:00,-0.04781645431727933
2018-02-16 10:45:08.974000+01:00,-0.04626576281552778
2018-02-16 10:45:08.976000+01:00,-0.047556580462771045
2018-02-16 10:45:08.978000+01:00,-0.05099005930508647
2018-02-16 10:45:08.980000+01:00,-0.055606244619825794
2018-02-16 10:45:08.982000+01:00,-0.06038769077755774
2018-02-16 10:45:08.984000+01:00,-0.06447071751943778
2018-02-16 10:45:08.986000+01:00,-0.06732081117234767
2018-02-16 10:45:08.988000+01:00,-0.06883330970836438
2018-02-16 10:45:08.990000+01:00,-0.069334252382375
2018-02-16 10:45:08.992000+01:00,-0.06947708542431134
2018-02-16 10:45:08.994000+01:00,-0.07005469348405757
2018-02-16 10:45:08.996000+01:00,-0.07176754987825447
2018-02-16 10:45:08.998000+01:00,-0.0750022095954267
2018-02-16 10:45:09+01:00,-0.07967582337260126
2018-02-16 10:45:09.002000+01:00,-0.08519036914837515
2018-02-16 10:45:09.004000+01:00,-0.09051665859893028
2018-02-16 10:45:09.006000+01:00,-0.09439775782578289
2018-02-16 10:45:09.008000+01:00,-0.0956313130043733
2018-02-16 10:45:09.010000+01:00,-0.09336788645840535
2018-02-16 10:45:09.012000+01:00,-0.08735393138224108
2018-02-16 10:45:09.014000+01:00,-0.078056549800069
2018-02-16 10:45:09.016000+01:00,-0.06663168884057005
2018-02-16 10:45:09.018000+01:00,-0.05473288107618312
2018-02-16 10:45:09.020000+01:00,-0.04419586038856026
2018-02-16 10:45:09.022000+01:00,-0.03666611337544128
2018-02-16 10:45:09.024000+01:00,-0.0332534441671398
2018-02-16 10:45:09.026000+01:00,-0.034294927480346925
2018-02-16 10:45:09.028000+01:00,-0.039284959018963055
2018-02-16 10:45:09.030000+01:00,-0.046993146071235115
2018-02-16 10:45:09.032000+01:00,-0.055746253985672685
2018-02-16 10:45:09.034000+01:00,-0.06381011874642044
2018-02-16 10:45:09.036000+01:00,-0.06978151888561379
2018-02-16 10:45:09.038000+01:00,-0.07289550370794359
2018-02-16 10:45:09.040000+01:00,-0.07317247902289448
2018-02-16 10:45:09.042000+01:00,-0.07136759088993329
2018-02-16 10:45:09.044000+01:00,-0.06873369914693775
2018-02-16 10:45:09.046000+01:00,-0.06665654394622478
2018-02-16 10:45:09.048000+01:00,-0.06625460160427711
2018-02-16 10:45:09.050000+01:00,-0.06804752248005326
2018-02-16 10:45:09.052000+01:00,-0.07178225890656642
2018-02-16 10:45:09.054000+01:00,-0.07646789570314655
2018-02-16 10:45:09.056000+01:00,-0.08061766535420611
2018-02-16 10:45:09.058000+01:00,-0.08264257645858308
2018-02-16 10:45:09.060000+01:00,-0.0812992963166713
2018-02-16 10:45:09.062000+01:00,-0.07607657829001846
2018-02-16 10:45:09.064000+01:00,-0.06741520283501212
2018-02-16 10:45:09.066000+01:00,-0.05669448473209904
2018-02-16 10:45:09.068000+01:00,-0.045975225095397074
2018-02-16 10:45:09.070000+01:00,-0.0375507612095392
2018-02-16 10:45:09.072000+01:00,-0.03340893515129576
2018-02-16 10:45:09.074000+01:00,-0.03473498128608538
2018-02-16 10:45:09.076000+01:00,-0.041580758657812404
2018-02-16 10:45:09.078000+01:00,-0.05278948927270002
2018-02-16 10:45:09.080000+01:00,-0.06620532094565702
2018-02-16 10:45:09.082000+01:00,-0.07912791924440116
2018-02-16 10:45:09.084000+01:00,-0.08891098512555731
2018-02-16 10:45:09.086000+01:00,-0.09356563144577255
2018-02-16 10:45:09.088000+01:00,-0.09222495386210713
2018-02-16 10:45:09.090000+01:00,-0.08535674887751674
2018-02-16 10:45:09.092000+01:00,-0.07467014297351443
2018-02-16 10:45:09.094000+01:00,-0.06273471763501291
2018-02-16 10:45:09.096000+01:00,-0.05239965741048446
2018-02-16 10:45:09.098000+01:00,-0.04614838365885642
2018-02-16 10:45:09.100000+01:00,-0.045539154684681483
2018-02-16 10:45:09.102000+01:00,-0.050860513063894094
2018-02-16 10:45:09.104000+01:00,-0.06107775862416045
2018-02-16 10:45:09.106000+01:00,-0.0740761853896405
2018-02-16 10:45:09.108000+01:00,-0.08713634072529776
2018-02-16 10:45:09.110000+01:00,-0.09752359318227447
2018-02-16 10:45:09.112000+01:00,-0.10305168579541073
2018-02-16 10:45:09.114000+01:00,-0.10249253873954012
2018-02-16 10:45:09.116000+01:00,-0.09574809511433004
2018-02-16 10:45:09.118000+01:00,-0.08376234801430066
2018-02-16 10:45:09.120000+01:00,-0.06821617161098721
2018-02-16 10:45:09.122000+01:00,-0.0510975273731056
2018-02-16 10:45:09.124000+01:00,-0.034262726812302316
2018-02-16 10:45:09.126000+01:00,-0.0190960024603867
2018-02-16 10:45:09.128000+01:00,-0.006338637267442924
2018-02-16 10:45:09.130000+01:00,0.0038934144005482742
2018-02-16 10:45:09.132000+01:00,0.011937808197558282
2018-02-16 10:45:09.134000+01:00,0.0183337811331238
2018-02-16 10:45:09.136000+01:00,0.023578666632498288
2018-02-16 10:45:09.138000+01:00,0.02796948264269464
2018-02-16 10:45:09.140000+01:00,0.03157141961050649
2018-02-16 10:45:09.142000+01:00,0.0343093677831914
2018-02-16 10:45:09.144000+01:00,0.03613629188004281
2018-02-16 10:45:09.146000+01:00,0.037206322525739764
2018-02-16 10:45:09.148000+01:00,0.03797868941528853
2018-02-16 10:45:09.150000+01:00,0.03920142977694136
2018-02-16 10:45:09.152000+01:00,0.04176399415177923
2018-02-16 10:45:09.154000+01:00,0.04645286159900052
2018-02-16 10:45:09.156000+01:00,0.05367993069084942
2018-02-16 10:45:09.158000+01:00,0.06326834583579198
2018-02-16 10:45:09.160000+01:00,0.07436930309399951
2018-02-16 10:45:09.162000+01:00,0.08554886785607094
2018-02-16 10:45:09.164000+01:00,0.0950357882636226
2018-02-16 10:45:09.166000+01:00,0.10107386455650588
2018-02-16 10:45:09.168000+01:00,0.10228993843291614
2018-02-16 10:45:09.170000+01:00,0.09798116923848646
2018-02-16 10:45:09.172000+01:00,0.08824574254056743
2018-02-16 10:45:09.174000+01:00,0.07392403549133128
2018-02-16 10:45:09.176000+01:00,0.056370218066117785
2018-02-16 10:45:09.178000+01:00,0.03712169234780696
2018-02-16 10:45:09.180000+01:00,0.017561506041579057
2018-02-16 10:45:09.182000+01:00,-0.0013316178522574705
2018-02-16 10:45:09.184000+01:00,-0.019079825090474633
2018-02-16 10:45:09.186000+01:00,-0.035632115616562536
2018-02-16 10:45:09.188000+01:00,-0.05115650524296851
2018-02-16 10:45:09.190000+01:00,-0.06577755198101193
2018-02-16 10:45:09.192000+01:00,-0.0793560534056913
2018-02-16 10:45:09.194000+01:00,-0.09139443558047447
2018-02-16 10:45:09.196000+01:00,-0.10111050242744277
2018-02-16 10:45:09.198000+01:00,-0.10766585557729777
2018-02-16 10:45:09.200000+01:00,-0.11048077990436386
2018-02-16 10:45:09.202000+01:00,-0.10953219500676298
2018-02-16 10:45:09.204000+01:00,-0.10552759068987518
2018-02-16 10:45:09.206000+01:00,-0.09987863139012923
2018-02-16 10:45:09.208000+01:00,-0.09445566853228288
2018-02-16 10:45:09.210000+01:00,-0.09117232724955641
2018-02-16 10:45:09.212000+01:00,-0.09150708488738887
2018-02-16 10:45:09.214000+01:00,-0.09609774385973842
2018-02-16 10:45:09.216000+01:00,-0.10453408988309881
2018-02-16 10:45:09.218000+01:00,-0.1154244461554034
2018-02-16 10:45:09.220000+01:00,-0.1267358433956621
2018-02-16 10:45:09.222000+01:00,-0.13632645617918637
2018-02-16 10:45:09.224000+01:00,-0.14252694605762864
2018-02-16 10:45:09.226000+01:00,-0.1446042684928348
2018-02-16 10:45:09.228000+01:00,-0.14296667775580357
2018-02-16 10:45:09.230000+01:00,-0.13903753220590243
2018-02-16 10:45:09.232000+01:00,-0.13482014479193272
2018-02-16 10:45:09.234000+01:00,-0.1322696413236226
2018-02-16 10:45:09.236000+01:00,-0.13265258660740475
2018-02-16 10:45:09.238000+01:00,-0.13608988530210453
2018-02-16 10:45:09.240000+01:00,-0.1414356391991758
2018-02-16 10:45:09.242000+01:00,-0.1465533357889129
2018-02-16 10:45:09.244000+01:00,-0.14893489977994623
2018-02-16 10:45:09.246000+01:00,-0.14650051789064197
2018-02-16 10:45:09.248000+01:00,-0.13835010957098043
2018-02-16 10:45:09.250000+01:00,-0.12523335914868355
2018-02-16 10:45:09.252000+01:00,-0.1095698571778967
2018-02-16 10:45:09.254000+01:00,-0.09496989484496414
2018-02-16 10:45:09.256000+01:00,-0.08534886402210107
2018-02-16 10:45:09.258000+01:00,-0.08385426066108939
2018-02-16 10:45:09.260000+01:00,-0.09189629464849866
2018-02-16 10:45:09.262000+01:00,-0.1085665142058945
2018-02-16 10:45:09.264000+01:00,-0.13064004250490568
2018-02-16 10:45:09.266000+01:00,-0.15320569116447186
2018-02-16 10:45:09.268000+01:00,-0.17079317384556558
2018-02-16 10:45:09.270000+01:00,-0.17871600597332724
2018-02-16 10:45:09.272000+01:00,-0.1742668524619685
2018-02-16 10:45:09.274000+01:00,-0.15741702400310675
2018-02-16 10:45:09.276000+01:00,-0.13078615072853467
2018-02-16 10:45:09.278000+01:00,-0.09883682507765787
2018-02-16 10:45:09.280000+01:00,-0.06646491756919656
2018-02-16 10:45:09.282000+01:00,-0.03734141549266812
2018-02-16 10:45:09.284000+01:00,-0.01246279392548816
2018-02-16 10:45:09.286000+01:00,0.010649618831875327
2018-02-16 10:45:09.288000+01:00,0.03779896606550632
2018-02-16 10:45:09.290000+01:00,0.07693966013098258
2018-02-16 10:45:09.292000+01:00,0.13617920886503174
2018-02-16 10:45:09.294000+01:00,0.221390452066778
2018-02-16 10:45:09.296000+01:00,0.33401208091161977
2018-02-16 10:45:09.298000+01:00,0.4696194699091956
2018-02-16 10:45:09.300000+01:00,0.617704307027914
2018-02-16 10:45:09.302000+01:00,0.76283846614467
2018-02-16 10:45:09.304000+01:00,0.8870750476847737
2018-02-16 10:45:09.306000+01:00,0.9731351743565526
2018-02-16 10:45:09.308000+01:00,1.0077189756678029
2018-02-16 10:45:09.310000+01:00,0.9842183033209242
2018-02-16 10:45:09.312000+01:00,0.9042167153238229
2018-02-16 10:45:09.314000+01:00,0.7774175327622591
2018-02-16 10:45:09.316000+01:00,0.6199851144866089
2018-02-16 10:45:09.318000+01:00,0.4516370038369524
2018-02-16 10:45:09.320000+01:00,0.29210154534901217
2018-02-16 10:45:09.322000+01:00,0.15769110639483025
2018-02-16 10:45:09.324000+01:00,0.058703535477639714
2018-02-16 10:45:09.326000+01:00,-0.0018356892170469455
2018-02-16 10:45:09.328000+01:00,-0.027891424154385367
2018-02-16 10:45:09.330000+01:00,-0.028747809685060167
2018-02-16 10:45:09.332000+01:00,-0.016402193464379086
2018-02-16 10:45:09.334000+01:00,-0.0026636470760109656
2018-02-16 10:45:09.336000+01:00,0.0033762859446595417
2018-02-16 10:45:09.338000+01:00,-0.00303694505166752
2018-02-16 10:45:09.340000+01:00,-0.021898743358791526
2018-02-16 10:45:09.342000+01:00,-0.04920422806695531
2018-02-16 10:45:09.344000+01:00,-0.07859092451536676
2018-02-16 10:45:09.346000+01:00,-0.10337782928467969
2018-02-16 10:45:09.348000+01:00,-0.11845577620613176
2018-02-16 10:45:09.350000+01:00,-0.1215657234022127
2018-02-16 10:45:09.352000+01:00,-0.11369384451452258
2018-02-16 10:45:09.354000+01:00,-0.09855979007706009
2018-02-16 10:45:09.356000+01:00,-0.08141064310576371
2018-02-16 10:45:09.358000+01:00,-0.06749791976396312
2018-02-16 10:45:09.360000+01:00,-0.06067014255100038
2018-02-16 10:45:09.362000+01:00,-0.06245136956571346
2018-02-16 10:45:09.364000+01:00,-0.07182008046654795
2018-02-16 10:45:09.366000+01:00,-0.08569988143699009
2018-02-16 10:45:09.368000+01:00,-0.09998034015034397
2018-02-16 10:45:09.370000+01:00,-0.11075393251947416
2018-02-16 10:45:09.372000+01:00,-0.11541559838448674
2018-02-16 10:45:09.374000+01:00,-0.11333013408976987
2018-02-16 10:45:09.376000+01:00,-0.1059082003069457
2018-02-16 10:45:09.378000+01:00,-0.09610305813461764
2018-02-16 10:45:09.380000+01:00,-0.08749865791227907
2018-02-16 10:45:09.382000+01:00,-0.08326280868985428
2018-02-16 10:45:09.384000+01:00,-0.08526159398732483
2018-02-16 10:45:09.386000+01:00,-0.09357108791889787
2018-02-16 10:45:09.388000+01:00,-0.1065006615110366
2018-02-16 10:45:09.390000+01:00,-0.1210955371842882
2018-02-16 10:45:09.392000+01:00,-0.13395650493121397
2018-02-16 10:45:09.394000+01:00,-0.14213681979290438
2018-02-16 10:45:09.396000+01:00,-0.14386902947989438
2018-02-16 10:45:09.398000+01:00,-0.13893599538356943
2018-02-16 10:45:09.400000+01:00,-0.12860976001518032
2018-02-16 10:45:09.402000+01:00,-0.11520595641285437
2018-02-16 10:45:09.404000+01:00,-0.10140454031360635
